Drag (N),Lift (N),Time (s)
-5.26000000000003,5.76500000000005,0
-5.0724417493643,5.54919023120158,0.001
-4.88505949355525,5.33357635939232,0.002
-4.69802893488351,5.11835394280944,0.003
-4.51152519120508,4.90371786283761,0.004
-4.32572250513623,4.6898619872105,0.005
-4.14079395499568,4.47697883516186,0.006
-3.95691116804388,4.26525924517031,0.007
-3.77424403658431,4.0548920459363,0.008
-3.59296043748549,3.846063731224,0.009
-3.41322595567515,3.63895813919261,0.01
-3.23520361214886,3.43375613683317,0.011
-3.05905359702643,3.23063531011667,0.012
-2.8849330081777,3.02976966044808,0.013
-2.71299559592768,2.83132930800834,0.014
-2.54339151433784,2.63548020255305,0.015
-2.37626707954583,2.44238384222142,0.016
-2.21176453563093,2.25219700089388,0.017
-2.05002182845613,2.06507146461915,0.018
-1.89117238792049,1.88115377761431,0.019
-1.73534491903726,1.70058499832222,0.02
-1.58266320223423,1.52350046599075,0.021
-1.43324590325298,1.35002957821776,0.022
-1.28720639300264,1.18029557988388,0.023
-1.14465257770291,1.01441536387298,0.024
-1.00568673962841,0.852499283956594,0.025
-0.870405388744082,0.69465098019497,0.026
-0.738899125497585,0.540967217182404,0.027
-0.611252515011085,0.39153773543944,0.028
-0.487543972890154,0.246445116228429,0.029
-0.367845662842765,0.105764660042551,0.03
-0.252223406276117,-0.0304357210085578,0.031
-0.14073660401348,-0.162095596720852,0.032
-0.0334381702474341,-0.289162098057604,0.033
0.0696255211801339,-0.411589982010989,0.034
0.16841467810707,-0.529341681952013,0.035
0.262896118951081,-0.642387343385921,0.036
0.353043289169276,-0.750704845058928,0.037
0.438836265291681,-0.854279805391017,0.038
0.520261746569459,-0.953105574238402,0.039
0.597313034304557,-1.04718321001819,0.04
0.669989998953317,-1.13652144225655,0.041
0.738299035122106,-1.22113661965046,0.042
0.802253004598233,-1.30105264376146,0.043
0.861871167584286,-1.37630088848841,0.044
0.917179102328353,-1.44692010549382,0.045
0.968208613366601,-1.51295631578629,0.046
1.01499762861796,-1.57446268768866,0.047
1.05759008559348,-1.63149940144827,0.048
1.09603580700518,-1.68413350077182,0.049
1.13039036608031,-1.73243873159338,0.05
1.16071494190819,-1.77649536840863,0.051
1.18707616516613,-1.81639002853335,0.052
1.20954595459056,-1.85221547466736,0.053
1.22820134457728,-1.88407040616845,0.054
1.2431243043124,-1.91205923946264,0.055
1.2544015488518,-1.9362918780386,0.056
1.26212434258216,-1.95688347249416,0.057
1.26638829551145,-1.9739541711226,0.058
1.26729315284951,-1.98762886154452,0.059
1.26494257835221,-1.99803690390885,0.06
1.25944393191351,-2.00531185620271,0.061
1.2509080418998,-2.00959119222525,0.062
1.23944897273015,-2.01101601279486,0.063
1.22518378821341,-2.00973075077217,0.064
1.20823231116015,-2.00588287049307,0.065
1.18871687979251,-1.99962256221697,0.066
1.16676210147953,-1.99110243220464,0.067
1.14249460432834,-1.98047718904871,0.068
1.11604278716364,-1.96790332688652,0.069
1.08753656842837,-1.9535388061311,0.07
1.05710713453805,-1.93754273236045,0.071
1.02488668821944,-1.92007503400848,0.072
0.991008197361237,-1.90129613950295,0.073
0.955605144900444,-1.88136665449647,0.074
0.918811280262797,-1.86044703983584,0.075
0.880760372869152,-1.83869729091313,0.076
0.841585968212249,-1.81627661903877,0.077
0.801421146999585,-1.79334313547218,0.078
0.76039828784841,-1.77005353873994,0.079
0.718648834008062,-1.74656280586432,0.08
0.676303064573023,-1.72302388811658,0.081
0.633489870637293,-1.6995874119002,0.082
0.590336536826845,-1.6764013853582,0.083
0.546968528632247,-1.65361091128686,0.084
0.503509285947916,-1.63135790692501,0.085
0.460080023207984,-1.6097808311739,0.086
0.41679953649152,-1.58901441978706,0.087
0.373784017951753,-1.56918942905336,0.088
0.331146877905221,-1.55043238847876,0.089
0.28899857489726,-1.53286536295372,0.09
0.247446454040209,-1.51660572487389,0.091
0.206594593900001,-1.50176593666095,0.092
0.166543662185627,-1.48845334410932,0.093
0.127390780474246,-1.47676998096212,0.094
0.0892293981826407,-1.46681238509672,0.095
0.0521491759731537,-1.45867142667637,0.096
0.0162358787594935,-1.4524321485999,0.097
-0.0184287215453474,-1.44817361955611,0.098
-0.0517669334200973,-1.44596879996384,0.099
-0.083705223169639,-1.44588442105203,0.1
-0.114174282330948,-1.44798087730724,0.101
-0.143109085002233,-1.45231213248876,0.102
-0.170448935070575,-1.45892563938328,0.103
-0.196137503336934,-1.46786227344342,0.104
-0.220122854560805,-1.47915628042521,0.105
-0.24235746447008,-1.49283523811172,0.106
-0.262798226804713,-1.50892003218012,0.107
-0.281406450485538,-1.52742484624138,0.108
-0.298147847022041,-1.54835716605187,0.109
-0.312992508294902,-1.57171779786751,0.11
-0.325914874870794,-1.59750090088167,0.111
-0.336893695028009,-1.62569403365927,0.112
-0.345911974692139,-1.65627821445056,0.113
-0.352956918501044,-1.68922799523949,0.114
-0.358019862237769,-1.72451154935317,0.115
-0.361096196888829,-1.7620907724311,0.116
-0.362185284603309,-1.8019213965251,0.117
-0.361290366845561,-1.84395311707366,0.118
-0.358418465050768,-1.8881297324681,0.119
-0.353580274108382,-1.93438929590135,0.12
-0.34679004901326,-1.98266427916524,0.121
-0.338065485038329,-2.03288174803685,0.122
-0.327427591795617,-2.08496354887087,0.123
-0.314900561564658,-2.13882650599117,0.124
-0.300511632278363,-2.19438262945251,0.125
-0.284290945566669,-2.25153933272177,0.126
-0.266271400267388,-2.31019965980688,0.127
-0.24648850182181,-2.37026252134246,0.128
-0.224980207979712,-2.43162293912185,0.129
-0.201786771244445,-2.4941722985477,0.13
-0.176950578493716,-2.55779860845654,0.131
-0.150515988215614,-2.62238676775713,0.132
-0.122529165802196,-2.68781883830794,0.133
-0.0930379173447255,-2.75397432344571,0.134
-0.0620915223752757,-2.82073045156523,0.135
-0.0297405659990133,-2.88796246413912,0.136
0.00396322914003984,-2.9555439075573,0.137
0.0389671706195133,-3.02334692815703,0.138
0.0752177632888337,-3.09124256980765,0.139
0.112660875177032,-3.15910107340811,0.14
0.151241901831924,-3.22679217765113,0.141
0.190905928671069,-3.2941854204047,0.142
0.231597890932587,-3.36115044005963,0.143
0.273262730822578,-3.42755727619169,0.144
0.315845551465482,-3.49327666888773,0.145
0.359291767274221,-3.55818035608721,0.146
0.403547250368374,-3.6221413682945,0.147
0.448558472680905,-3.68503432002206,0.148
0.494272643407033,-3.74673569733098,0.149
0.540637841462732,-3.80712414084282,0.15
0.587603142634973,-3.86608072360592,0.151
0.63511874112118,-3.9234892232092,0.152
0.683136065171405,-3.97923638754831,0.153
0.731607886563402,-4.03321219366141,0.154
0.780488423658056,-4.08531009906626,0.155
0.82973343780043,-4.13542728504497,0.156
0.879300322850054,-4.18346489133987,0.157
0.929148187642845,-4.22932824174049,0.158
0.979237931206311,-4.27292706006148,0.159
1.02953231056921,-4.31417567602994,0.16
1.0799960010268,-4.35299322062213,0.161
1.13059564874302,-4.38930381041097,0.162
1.18129991559121,-4.42303672050849,0.163
1.23207951615579,-4.45412654571133,0.164
1.28290724683778,-4.48251334948144,0.165
1.333758007028,-4.50814280041991,0.166
1.38460881233262,-4.53096629591772,0.167
1.43543879985629,-4.55094107269419,0.168
1.48622922556907,-4.56803030396134,0.169
1.53696345380387,-4.58220318298044,0.17
1.58762693895148,-4.59343499280589,0.171
1.63820719944046,-4.60170716204059,0.172
1.68869378410938,-4.60700730645666,0.173
1.73907823109805,-4.60932925636524,0.174
1.78935401940414,-4.60867306964974,0.175
1.83951651327009,-4.60504503040702,0.176
1.8895628995839,-4.59845763317233,0.177
1.93949211849511,-4.58892955273407,0.178
1.98930478746488,-4.57648559957623,0.179
2.03900311898569,-4.56115666101656,0.18
2.08859083222273,-4.54297962813997,0.181
2.13807305884428,-4.52199730865746,0.182
2.18745624332354,-4.49825832585107,0.183
2.23674803800841,-4.47181700379644,0.184
2.28595719326936,-4.4427332390838,0.185
2.33509344304788,-4.41107235928881,0.186
2.38416738614024,-4.37690496847307,0.187
2.43319036356207,-4.34030678002354,0.188
2.48217433234954,-4.30135843716795,0.189
2.53113173616224,-4.26014532153104,0.19
2.58007537306137,-4.21675735012318,0.191
2.62901826084406,-4.17128876117937,0.192
2.67797350032165,-4.12383788929167,0.193
2.72695413693504,-4.07450693030292,0.194
2.77597302110496,-4.02340169645308,0.195
2.82504266771911,-3.97063136229207,0.196
2.87417511516011,-3.91630820189505,0.197
2.92338178428094,-3.86054731793617,0.198
2.97267333773445,-3.80346636319673,0.199
3.02205954006399,-3.74518525510187,0.2
3.07154911896082,-3.68582588389712,0.201
3.12114962809175,-3.62551181509213,0.202
3.1708673118976,-3.56436798681342,0.203
3.22070697275902,-3.50252040272169,0.204
3.27067184092092,-3.440095821161,0.205
3.3207634475614,-3.37722144121785,0.206
3.3709815013838,-3.31402458637774,0.207
3.42132376910294,-3.2506323864744,0.208
3.4717859601881,-3.18717145863336,0.209
3.5223616162158,-3.12376758791684,0.21
3.573042005175,-3.06054540838003,0.211
3.62381602105655,-2.99762808525113,0.212
3.67467008904652,-2.93513699894816,0.213
3.72558807663074,-2.87319143164423,0.214
3.77655121090413,-2.811908257091,0.215
3.82753800236472,-2.75140163440567,0.216
3.87852417545741,-2.69178270652156,0.217
3.92948260611691,-2.63315930399549,0.218
3.98038326654394,-2.57563565485651,0.219
4.03119317743164,-2.51931210117064,0.22
4.08187636784257,-2.46428482298505,0.221
4.13239384291906,-2.41064557030211,0.222
4.18270355959156,-2.3584814037195,0.223
4.23276041043167,-2.30787444435692,0.224
4.2825162157774,-2.25890163367295,0.225
4.33191972423962,-2.21163450375718,0.226
4.38091662167895,-2.16613895866292,0.227
4.42944954872336,-2.12247506732513,0.228
4.47745812687632,-2.08069686858562,0.229
4.52487899324629,-2.04085218882441,0.23
4.57164584390774,-2.00298247267153,0.231
4.6176894858842,-1.96712262724778,0.232
4.6629378977238,-1.9333008803564,0.233
4.70731629861762,-1.90153865301958,0.234
4.7507472259915,-1.87185044672544,0.235
4.79315062148183,-1.84424374572109,0.236
4.83444392518649,-1.8187189346574,0.237
4.8745421780626,-1.79526923185932,0.238
4.91335813232335,-1.77388063846441,0.239
4.95080236966769,-1.75453190363876,0.24
4.98678342715752,-1.73719450604724,0.241
5.02120793053942,-1.7218326517204,0.242
5.05398073478968,-1.70840328842703,0.243
5.08500507164422,-1.69685613662609,0.244
5.11418270385816,-1.68713373703744,0.245
5.14141408592335,-1.67917151483536,0.246
5.16659853095631,-1.67289786043364,0.247
5.18963438345404,-1.66823422679571,0.248
5.21041919760011,-1.66509524316787,0.249
5.22884992079011,-1.66338884509807,0.25
5.24482308203156,-1.66301642056796,0.251
5.2582349848613,-1.6638729720303,0.252
5.26898190441141,-1.66584729410949,0.253
5.27696028824337,-1.66882216668836,0.254
5.28206696056027,-1.67267456307031,0.255
5.28419932939698,-1.67727587287251,0.256
5.28325559637973,-1.68249213927277,0.257
5.27913496863866,-1.68818431020047,0.258
5.27173787244965,-1.6942085030302,0.259
5.26096616817613,-1.70041628230603,0.26
5.24672336607561,-1.70665494999427,0.261
5.22891484253203,-1.71276784773334,0.262
5.20744805627095,-1.71859467052161,0.263
5.18223276411249,-1.72397179125646,0.264
5.1531812358149,-1.7287325955123,0.265
5.12020846756145,-1.73270782592009,0.266
5.08323239364278,-1.73572593548744,0.267
5.04217409588869,-1.7376134491761,0.268
4.99695801040489,-1.73819533303222,0.269
4.94751213117336,-1.73729537014564,0.27
4.89376821007873,-1.73473654269567,0.271
4.83566195292793,-1.73034141932454,0.272
4.77313321103595,-1.72393254706384,0.273
4.70612616795685,-1.71533284702611,0.274
4.63458952094689,-1.7043660130611,0.275
4.55847665675462,-1.69085691256597,0.276
4.47774582134185,-1.67463198862948,0.277
4.39236028314929,-1.65551966268337,0.278
4.30228848953146,-1.633350736828,0.279
4.2075042159966,-1.60795879499615,0.28
4.10798670789989,-1.57918060211595,0.281
4.00372081425086,-1.54685650043417,0.282
3.89469711330961,-1.51083080216215,0.283
3.78091202966101,-1.47095217760949,0.284
3.66236794247051,-1.42707403797606,0.285
3.53907328464121,-1.37905491197867,0.286
3.41104263260771,-1.32675881549786,0.287
3.27829678651927,-1.27005561343961,0.288
3.14086284058161,-1.20882137301893,0.289
2.99877424334496,-1.14293870768561,0.29
2.85207084774368,-1.07229711092761,0.291
2.70079895071182,-0.996793279204138,0.292
2.54501132221757,-0.916331423279114,0.293
2.3847672235793,-0.830823567245578,0.294
2.22013241494533,-0.740189834553164,0.295
2.05117915183963,-0.644358720373824,0.296
1.87798617069572,-0.543267349665556,0.297
1.70063866332163,-0.43686172031985,0.298
1.51922824025912,-0.325096930805882,0.299
1.33385288302121,-0.207937391753251,0.3
1.14461688521268,-0.085357020944942,0.301
0.951630782559066,0.0426605787765838,0.302
0.755011271890535,0.176121959154948,0.303
0.55488111914768,0.315023684148381,0.304
0.351369056496989,0.459352205938112,0.305
0.144609668664395,0.609083759678054,0.306
-0.0652567313843844,0.764184277310923,0.307
-0.278084237267693,0.924609320738786,0.308
-0.493721494347012,1.09030403459817,0.309
-0.712011855032545,1.26120311885127,0.31
-0.932793544027215,1.43723082136577,0.311
-1.15589983328186,1.61830095061591,0.312
-1.38115922641577,1.80431690859776,0.313
-1.6083956523384,1.99517174401068,0.314
-1.83742866779028,2.19074822571685,0.315
-2.06807366850385,2.39091893644944,0.316
-2.30014210866795,2.59554638669919,0.317
-2.53344172836371,2.80448314866828,0.318
-2.76777678862367,3.01757201013934,0.319
-3.00294831375086,3.23464614806667,0.32
-3.23875434052037,3.45552932165657,0.321
-3.47499017387186,3.68003608466295,0.322
-3.71144864868856,3.90797201658534,0.323
-3.94792039724596,4.13913397241654,0.324
-4.18419412190162,4.37331035054896,0.325
-4.42005687258686,4.6102813784104,0.326
-4.6552943286508,4.84981941536301,0.327
-4.88969108459819,5.09168927236262,0.328
-5.12303093925389,5.33564854784012,0.329
-5.35509718787915,5.58144797923216,0.33
-5.58567291675842,5.82883180955491,0.331
-5.81454129976923,6.07753816838227,0.332
-6.04148589644279,6.32729946655881,0.333
-6.2662909510189,6.57784280394801,0.334
-6.48874169199547,6.82889038948756,0.335
-6.70862463167082,7.08015997279674,0.336
-6.92572786517522,7.33136528655489,0.337
-7.13984136848811,7.58221649884614,0.338
-7.35075729493739,7.83242067464286,0.339
-7.55827026967903,8.08168224557938,0.34
-7.76217768165719,8.32970348714843,0.341
-7.96227997254836,8.57618500243488,0.342
-8.15838092219716,8.82082621148596,0.343
-8.35028793005648,9.06332584540299,0.344
-8.53781229215051,9.30338244422739,0.345
-8.72076947308591,9.54069485768376,0.346
-8.89897937264439,9.7749627478341,0.347
-9.07226658649803,10.005887092691,0.348
-9.24046066059849,10.2331706898326,0.349
-9.40339633880124,10.4565186590611,0.35
-9.56091380329695,10.6756389431421,0.351
-9.71285890743427,10.8902428056698,0.352
-9.85908340053046,11.1000453250981,0.353
-9.99944514428016,11.3047658839909,0.354
-10.133808320386,11.5041286525464,0.355
-10.2620436290503,11.6978630654616,0.356
-10.3840284779822,11.8857042912141,0.357
-10.4996471615904,12.0673936928507,0.358
-10.6087910300491,12.2426792793883,0.359
-10.7113586479412,12.4113161469464,0.36
-10.8072559422023,12.5730669087537,0.361
-10.8963963391044,12.7277021131856,0.362
-10.9787008900411,12.8750006490172,0.363
-11.0540983858928,13.0147501370968,0.364
-11.1225254597695,13.1467473076694,0.365
-11.1839266779527,13.2707983626111,0.366
-11.2382546188742,13.386719321858,0.367
-11.2854699399929,13.4943363533487,0.368
-11.3255414324515,13.5934860858269,0.369
-11.3584460634157,13.6840159038857,0.37
-11.3841690060208,13.765784224668,0.371
-11.4027036568718,13.8386607556749,0.372
-11.4140516410647,13.902526733167,0.373
-11.41822280472,13.9572751406849,0.374
-11.4152351950396,14.0028109072514,0.375
-11.4051150279208,14.0390510848581,0.376
-11.387896643184,14.0659250048802,0.377
-11.363622447491,14.083374413103,0.378
-11.3323428450535,14.0913535830875,0.379
-11.2941161562522,14.0898294076427,0.38
-11.2490085243088,14.0787814682171,0.381
-11.1970938101745,14.0582020820645,0.382
-11.138453475817,14.0280963270815,0.383
-11.0731764561127,13.9884820442619,0.384
-11.0013590195664,13.9393898177517,0.385
-10.9231046181034,13.8808629325387,0.386
-10.8385237261967,13.8129573098493,0.387
-10.7477336696112,13.7357414203726,0.388
-10.6508584440648,13.6492961754738,0.389
-10.5480285241244,13.5537147966038,0.39
-10.4393806626703,13.4491026631533,0.391
-10.3250576812819,13.3355771390428,0.392
-10.2052082519095,13.2132673783826,0.393
-10.0799866702154,13.0823141105767,0.394
-9.9495526209805,12.9428694052861,0.395
-9.81407093598501,12.795096417706,0.396
-9.67371134478788,12.63916911465,0.397
-9.52864821883805,12.4752719819728,0.398
-9.37906030936459,12.303599713898,0.399
-9.22513047950129,12.1243568848554,0.4
-9.06704543111251,11.937757604463,0.401
-8.90499542679392,11.7440251563247,0.402
-8.73917400753119,11.5433916213448,0.403
-8.56977770650534,11.3360974862909,0.404
-8.39700575953993,11.1223912383633,0.405
-8.22105981269018,10.9025289465597,0.406
-8.04214362747793,10.6767738306458,0.407
-7.8604627842796,10.4453958185674,0.408
-7.67622438437631,10.2086710931613,0.409
-7.48963675117656,9.96688162904228,0.41
-7.30090913112167,9.72031472056248,0.411
-7.11025139478402,9.46926250175385,0.412
-6.91787373866555,9.21402145918134,0.413
-6.72398638820183,8.95489193864523,0.414
-6.52879930247299,8.69217764668256,0.415
-6.33252188111817,8.42618514782597,0.416
-6.1353626739447,8.15722335858506,0.417
-5.93752909371624,7.88560303911996,0.418
-5.73922713259715,7.61163628357966,0.419
-5.54066108272168,7.33563601007822,0.42
-5.34203326134714,7.05791545128056,0.421
-5.14354374104062,6.77878764656657,0.422
-4.94539008533707,6.49856493673655,0.423
-4.74776709029553,6.21755846221396,0.424
-4.55086653236689,5.93607766569212,0.425
-4.35487692297387,5.6544298001603,0.426
-4.15998327018915,5.37291944323164,0.427
-3.96636684788318,5.09184801868022,0.428
-3.77420497269723,4.81151332607776,0.429
-3.58367078918139,4.53220907940205,0.43
-3.39493306341999,4.25422445546838,0.431
-3.20815598544984,3.97784365301345,0.432
-3.02349898075842,3.70334546323735,0.433
-2.84111653113078,3.43100285258364,0.434
-2.66115800509477,3.1610825585107,0.435
-2.48376749819512,2.89384469897912,0.436
-2.3090836833065,2.6295423963497,0.437
-2.13723967117621,2.36842141635558,0.438
-1.96836288136593,2.11071982277931,0.439
-1.80257492374186,1.85666764843184,0.44
-1.63999149064091,1.60648658299541,0.441
-1.48072225982018,1.36038967825623,0.442
-1.3248708082748,1.11858107121583,0.443
-1.17253453698858,0.881255725531884,0.444
-1.02380460665986,0.64859919170043,0.445
-0.878765884423823,0.420787386351984,0.446
-0.737496901570944,0.197986390993598,0.447
-0.60006982223998,-0.0196477295118339,0.448
-0.466550423042637,-0.231969088479058,0.449
-0.336998083556075,-0.438842118738546,0.45
-0.21146578759851,-0.640141693613001,0.451
-0.0900001351827284,-0.835753227408402,0.452
0.0273586349780232,-1.0255727553381,0.453
0.14057661255714,-1.20950699284091,0.454
0.249626172459648,-1.3874733742966,0.455
0.354485921609044,-1.55940007118421,0.456
0.455140635878554,-1.72522598977105,0.457
0.551581187387447,-1.88490074846147,0.458
0.643804462400624,-2.03838463497607,0.459
0.731813270086572,-2.1856485435727,0.46
0.815616242405216,-2.32667389256084,0.461
0.895227725412751,-2.46145252240045,0.462
0.970667662285635,-2.58998657471509,0.463
1.0419614683801,-2.71228835258723,0.464
1.10913989865714,-2.82838016254051,0.465
1.17223890781556,-2.93829413864987,0.466
1.23129950348783,-3.04207204925539,0.467
1.28636759286422,-3.13976508678948,0.468
1.33749382312148,-3.23143364125981,0.469
1.38473341604121,-3.31714705796151,0.47
1.42814599721195,-3.39698338002245,0.471
1.46779542021638,-3.47102907641372,0.472
1.50374958621195,-3.53937875608487,0.473
1.5360802593188,-3.60213486890882,0.474
1.56486287823372,-3.65940739414579,0.475
1.59017636449296,-3.71131351715757,0.476
1.61210292780926,-3.75797729512481,0.477
1.63072786891079,-3.79952931253865,0.478
1.64613938031058,-3.83610632725575,0.479
1.65842834543486,-3.86785090792112,0.48
1.66768813653836,-3.89491106357722,0.481
1.67401441183204,-3.91743986628958,0.482
1.67750491224674,-3.93559506762968,0.483
1.67825925825183,-3.94953870986365,0.484
