Drag (N),Lift (N),Time (s)
-5.26000000000005,5.76500000000005,0
-5.064166522813,5.5411523374939,0.001
-4.86851657641902,5.31750968901352,0.002
-4.6732333918424,5.09427671470618,0.003
-4.47849960115365,4.87165736764286,0.004
-4.28449693945039,4.649854541981,0.005
-4.09140594858438,4.42906972316424,0.006
-3.89940568321047,4.20950264083217,0.007
-3.70867341972895,3.99135092510745,0.008
-3.51938436868592,3.77480976692107,0.009
-3.33171139118952,3.56007158302843,0.01
-3.14582471989049,3.34732568635998,0.011
-2.96189168506653,3.13675796233914,0.012
-2.78007644633821,2.92855055178882,0.013
-2.60053973053273,2.72288154103469,0.014
-2.42343857619816,2.51992465979911,0.015
-2.24892608525683,2.31984898746429,0.016
-2.07715118227112,2.12281866826671,0.017
-1.90825838177861,1.92899263596714,0.018
-1.74238756413625,1.738524348522,0.019
-1.57967376029506,1.55156153326176,0.02
-1.42024694590776,1.36824594306181,0.021
-1.26423184515181,1.18871312396896,0.022
-1.11174774462954,1.01309219472449,0.023
-0.962908317685601,0.841505638601105,0.024
-0.817821459459924,0.674069107946613,0.025
-0.676589132971185,0.510891241802358,0.026
-0.539307226502728,0.352073496938392,0.027
-0.406065422538608,0.197709992620966,0.028
-0.276947078473056,0.047887369400795,0.029
-0.152029119291726,-0.0973153378171484,0.03
-0.0313819423977396,-0.237826812189738,0.031
0.0849306652700823,-0.373583552633797,0.032
0.196851597705315,-0.504529956631333,0.033
0.304330487793008,-0.630618387996449,0.034
0.407323752690656,-0.751809229488152,0.035
0.505794626588381,-0.868070920183192,0.036
0.599713180831989,-0.979379977553118,0.037
0.68905633141901,-1.08572100421994,0.038
0.773807833904088,-1.18708667939499,0.039
0.853958265776257,-1.2834777350358,0.04
0.92950499639661,-1.37490291678594,0.041
1.00045214461053,-1.46137892979273,0.042
1.06681052417413,-1.54293036952767,0.043
1.12859757715938,-1.61958963776382,0.044
1.1858372955273,-1.69139684389366,0.045
1.23856013108231,-1.7583996918,0.046
1.28680289404482,-1.82065335252065,0.047
1.33060864050181,-1.8782203229758,0.048
1.37002654901768,-1.9311702710543,0.049
1.40511178670932,-1.97957986738205,0.05
1.43592536511023,-2.02353260412152,0.051
1.46253398616873,-2.06311860117753,0.052
1.48500987874473,-2.09843440020838,0.053
1.50343062598779,-2.12958274686601,0.054
1.51787898399712,-2.15667236171158,0.055
1.52844269218058,-2.17981770027514,0.056
1.53521427574541,-2.19913870274938,0.057
1.53829084076842,-2.21476053382759,0.058
1.53777386230645,-2.2268133132153,0.059
1.53376896602116,-2.23543183736326,0.06
1.52638570380308,-2.2407552929864,0.061
1.51573732389067,-2.24292696294957,0.062
1.50194053598909,-2.24209392511532,0.063
1.48511527190176,-2.23840674476305,0.064
1.46538444219439,-2.23201916120077,0.065
1.44287368941714,-2.22308776920215,0.066
1.41771113841521,-2.2117716959113,0.067
1.39002714426111,-2.19823227386628,0.068
1.35995403834461,-2.18263271079967,0.069
1.32762587315688,-2.16513775688046,0.07
1.29317816630527,-2.14591337006611,0.071
1.25674764429393,-2.1251263802369,0.072
1.21847198660244,-2.1029441527867,0.073
1.17848957059141,-2.07953425234481,0.074
1.1369392177584,-2.05506410730265,0.075
1.09395994186213,-2.02970067581707,0.076
1.0496906994251,-2.00361011395859,0.077
1.0042701431167,-1.97695744666782,0.078
0.957836378509525,-1.94990624217738,0.079
0.9105267246909,-1.92261829054909,0.08
0.862477479200243,-1.89525328696725,0.081
0.813823687750294,-1.867968520419,0.082
0.764698919176762,-1.8409185683811,0.083
0.715235046046454,-1.81425499812005,0.084
0.665562031338635,-1.78812607519861,0.085
0.615807721598104,-1.76267647976665,0.086
0.566097646941468,-1.73804703119805,0.087
0.51655482828023,-1.71437442161818,0.088
0.467299592105764,-1.69179095884793,0.089
0.418449393161974,-1.6704243192706,0.09
0.370118645311536,-1.65039731110781,0.091
0.322418560881096,-1.63182764856863,0.092
0.275456998749753,-1.61482773731394,0.093
0.229338321423598,-1.59950447165455,0.094
0.184163261317064,-1.5859590438775,0.095
0.140028796439453,-1.5742867660696,0.096
0.0970280356622585,-1.56457690478206,0.097
0.0552501137198727,-1.55691252885296,0.098
0.0147800960730078,-1.55137037067759,0.099
-0.0243011062592898,-1.54802070118881,0.1
-0.0619168118167109,-1.54692721878131,0.101
-0.0979946337051601,-1.54814695238487,0.102
-0.132466534459605,-1.55173017886265,0.103
-0.165268870750871,-1.55772035488078,0.104
-0.19634242794847,-1.56615406336599,0.105
-0.225632444574908,-1.57706097463741,0.106
-0.253088626710084,-1.59046382226907,0.107
-0.278665152427275,-1.60637839370842,0.108
-0.302320666364814,-1.62481353564641,0.109
-0.32401826455979,-1.64577117410372,0.11
-0.3437254696919,-1.66924634916745,0.111
-0.361414196906978,-1.69522726428234,0.112
-0.377060710410538,-1.7236953499704,0.113
-0.39064557104199,-1.75462534182289,0.114
-0.402153575059849,-1.78798537257901,0.115
-0.411573684387354,-1.82373707807669,0.116
-0.418898948586213,-1.86183571683167,0.117
-0.424126418843879,-1.90223030297312,0.118
-0.4272570542766,-1.94486375223596,0.119
-0.428295620866555,-1.98967304068329,0.12
-0.42725058336663,-2.03658937580528,0.121
-0.424133990520735,-2.08553837961552,0.122
-0.418961353961026,-2.13644028334068,0.123
-0.411751521155934,-2.18921013327483,0.124
-0.402526542794471,-2.24375800734679,0.125
-0.391311535002888,-2.29998924192621,0.126
-0.37813453679937,-2.35780466837251,0.127
-0.363026363201013,-2.41710085881067,0.128
-0.346020454404908,-2.47777038059793,0.129
-0.327152721471635,-2.53970205892758,0.13
-0.30646138894493,-2.60278124699843,0.131
-0.283986834845639,-2.66689010316283,0.132
-0.259771428481404,-2.73190787445086,0.133
-0.233859366515725,-2.79771118585514,0.134
-0.206296507741191,-2.86417433474792,0.135
-0.177130207001731,-2.93116958979139,0.136
-0.146409148707743,-2.99856749369208,0.137
-0.114183180385856,-3.06623716914213,0.138
-0.0805031467019624,-3.13404662728284,0.139
-0.0454207243919606,-3.20186307802038,0.14
-0.00898825852942521,-3.26955324151923,0.141
0.0287413994468008,-3.33698366019594,0.142
0.0677150515293587,-3.40402101053434,0.143
0.107879310355937,-3.47053241404327,0.144
0.149180753441294,-3.53638574667915,0.145
0.191566074039499,-3.60144994605844,0.146
0.234982228259143,-3.66559531578937,0.147
0.279376578066174,-3.72869382625752,0.148
0.324697029821738,-3.79061941120728,0.149
0.370892168015916,-3.8512482594689,0.15
0.417911383872609,-3.91045910119132,0.151
0.465704998515837,-3.96813348795129,0.152
0.514224380403494,-4.02415606612225,0.153
0.563422056750997,-4.07841484289982,0.154
0.613251818684325,-4.13080144439582,0.155
0.663668819879549,-4.18121136522913,0.156
0.714629668464081,-4.22954420905892,0.157
0.766092511973544,-4.27570391952473,0.158
0.818017115177206,-4.31959900107747,0.159
0.870364930604428,-4.36114272920651,0.16
0.923099161624387,-4.40025334959003,0.161
0.976184817951461,-4.43685426571879,0.162
1.02958876346904,-4.47087421456768,0.163
1.08327975628512,-4.50224742991424,0.164
1.13722848095379,-4.53091379292936,0.165
1.19140757281749,-4.55681896969212,0.166
1.24579163444591,-4.57991453530811,0.167
1.30035724416823,-4.60015808433901,0.168
1.35508295671627,-4.61751332728003,0.169
1.40994929601695,-4.63195017285145,0.17
1.46493874019289,-4.64344479590067,0.171
1.52003569885068,-4.65197969074147,0.172
1.57522648275628,-4.65754370978888,0.173
1.63049926601703,-4.66013208737883,0.174
1.68584404090933,-4.65974644869391,0.175
1.7412525655102,-4.65639480374846,0.176
1.79671830430967,-4.65009152641836,0.177
1.85223636199929,-4.6408573185332,0.178
1.90780341064982,-4.62871915908081,0.179
1.96341761050842,-4.61371023860668,0.18
2.01907852466219,-4.59586987892248,0.181
2.07478702783118,-4.5752434382708,0.182
2.13054520956904,-4.55188220212422,0.183
2.18635627216436,-4.52584325982905,0.184
2.24222442354958,-4.49718936733502,0.185
2.29815476553755,-4.46598879628294,0.186
2.35415317771814,-4.43231516975283,0.187
2.4102261973589,-4.39624728500478,0.188
2.46638089566439,-4.3578689235738,0.189
2.5226247507588,-4.31726864910853,0.19
2.5789655177652,-4.27453959337144,0.191
2.63541109636291,-4.22977923084503,0.192
2.69196939621162,-4.18308914241454,0.193
2.74864820063693,-4.13457476862324,0.194
2.80545502897727,-4.08434515302001,0.195
2.86239699799632,-4.03251267614265,0.196
2.91948068276838,-3.97919278070216,0.197
2.9767119774464,-3.92450368855426,0.198
3.0340959563235,-3.86856611006448,0.199
3.09163673559943,-3.81150294649131,0.2
3.14933733626242,-3.75343898602987,0.201
3.20719954849539,-3.69450059417394,0.202
3.26522379801262,-3.63481539906947,0.203
3.32340901472974,-3.57451197254572,0.204
3.38175250416476,-3.51371950752216,0.205
3.44024982196287,-3.45256749249997,0.206
3.49889465193076,-3.39118538385564,0.207
3.55767868795922,-3.32970227666223,0.208
3.6165915202041,-3.26824657476936,0.209
3.67562052588682,-3.20694566087801,0.21
3.73475076506533,-3.14592556734889,0.211
3.79396488171558,-3.08531064848462,0.212
3.85324301045186,-3.02522325502608,0.213
3.91256268920192,-2.96578341160113,0.214
3.97189877813922,-2.90710849786117,0.215
4.03122338516112,-2.84931293403572,0.216
4.09050579818666,-2.7925078716292,0.217
4.14971242453248,-2.73680088997577,0.218
4.2088067376094,-2.68229569935894,0.219
4.26774923116554,-2.62909185139133,0.22
4.32649738128472,-2.57728445733772,0.221
4.38500561633123,-2.52696391505017,0.222
4.44322529501401,-2.47821564516879,0.223
4.50110469272451,-2.43111983722456,0.224
4.55858899628374,-2.3857512062624,0.225
4.61562030721452,-2.34217876058278,0.226
4.67213765363552,-2.30046558117921,0.227
4.72807701085347,-2.26066861342654,0.228
4.7833713307101,-2.22283847155111,0.229
4.83795057972002,-2.18701925638931,0.23
4.89174178601498,-2.15324838691463,0.231
4.94466909509005,-2.12155644598636,0.232
4.99665383432605,-2.0919670407447,0.233
5.04761458624245,-2.06449667804791,0.234
5.09746727041427,-2.03915465531667,0.235
5.14612523396613,-2.01594296711985,0.236
5.19349935053616,-1.99485622780392,0.237
5.23949812758278,-1.97588161043535,0.238
5.28402782188692,-1.95899880229188,0.239
5.32699256308323,-1.94417997710463,0.24
5.36829448503398,-1.93138978421806,0.241
5.40783386484086,-1.92058535479971,0.242
5.4455092692711,-1.91171632519613,0.243
5.4812177083562,-1.90472487749515,0.244
5.51485479590399,-1.89954579731865,0.245
5.54631491664774,-1.89610654883318,0.246
5.57549139973906,-1.89432736692956,0.247
5.6022766982758,-1.89412136648529,0.248
5.62656257454047,-1.89539466858767,0.249
5.64824029060997,-1.89804654355819,0.25
5.66720080398372,-1.90196957058283,0.251
5.68333496786334,-1.90704981371653,0.252
5.6965337357051,-1.91316701399427,0.253
5.70668836965406,-1.92019479734565,0.254
5.713690652458,-1.92800089797493,0.255
5.71743310244902,-1.93644739683423,0.256
5.71780919117122,-1.9453909747832,0.257
5.7147135632246,-1.95468317999618,0.258
5.70804225788738,-1.96417070914457,0.259
5.69769293207245,-1.97369570185149,0.26
5.68356508416779,-1.98309604788446,0.261
5.66556027830566,-1.99220570652268,0.262
5.64358236860171,-2.00085503750661,0.263
5.61753772290178,-2.00887114295025,0.264
5.58733544557239,-2.01607821956991,0.265
5.5528875988696,-2.02229792055854,0.266
5.51410942242105,-2.02734972641045,0.267
5.47091955035633,-2.03105132397911,0.268
5.42324022562322,-2.03321899302947,0.269
5.37099751102952,-2.0336679995265,0.27
5.31412149655417,-2.03221299488376,0.271
5.25254650247594,-2.02866842037889,0.272
5.18621127787357,-2.02284891592802,0.273
5.11505919405742,-2.01456973239766,0.274
5.0390384325008,-2.00364714662072,0.275
4.95810216684654,-1.98989887827329,0.276
4.87220873857445,-1.97314450776037,0.277
4.78132182592463,-1.953205894252,0.278
4.68541060568309,-1.9299075930064,0.279
4.58444990744752,-1.90307727111346,0.28
4.47842036000368,-1.87254612079063,0.281
4.36730852945628,-1.83814926936357,0.282
4.25110704877223,-1.79972618506621,0.283
4.12981473840897,-1.75712107779889,0.284
4.00343671771606,-1.71018329398883,0.285
3.87198450681447,-1.65876770470521,0.286
3.73547611867462,-1.60273508619002,0.287
3.59393614113204,-1.54195249197755,0.288
3.44739580859694,-1.47629361578768,0.289
3.29589306323312,-1.40563914439338,0.29
3.13947260540001,-1.32987709967892,0.291
2.97818593317189,-1.24890316912317,0.292
2.81209137076746,-1.16262102396261,0.293
2.64125408574383,-1.07094262430934,0.294
2.46574609482938,-0.973788510522977,0.295
2.28564625829089,-0.871088080159129,0.296
2.10104026275168,-0.762779849843651,0.297
1.9120205923988,-0.648811701448938,0.298
1.71868648853919,-0.529141111977428,0.299
1.52114389748613,-0.403735366587655,0.3
1.31950540677954,-0.272571754229559,0.301
1.11389016976548,-0.135637745388439,0.302
0.904423818582014,0.00706884852924334,0.303
0.691238365620851,0.155539734600138,0.304
0.474472093555655,0.309756016974319,0.305
0.254269434049971,0.469688095010729,0.306
0.0307808352791147,0.635295581279094,0.307
-0.195837381578158,0.806527239711049,0.308
-0.42542317670124,0.983320944143937,0.309
-0.657808956644682,1.16560365746079,0.31
-0.892821749792234,1.35329143148945,0.311
-1.1302833920093,1.54628942778289,0.312
-1.37001072223542,1.74449195936113,0.313
-1.61181578773899,1.94778255345381,0.314
-1.85550605873755,2.15603403524013,0.315
-2.10088465206861,2.36910863254097,0.316
-2.34775056357803,2.58685810137578,0.317
-2.59589890887597,2.80912387225473,0.318
-2.84512117209338,3.03573721703446,0.319
-3.09520546225651,3.26651943612411,0.32
-3.34593677688095,3.50128206578661,0.321
-3.59709727237292,3.7398271052392,0.322
-3.84846654081084,3.98194726321625,0.323
-4.0998218926676,4.2274262236176,0.324
-4.35093864502154,4.47603892982579,0.325
-4.60159041479253,4.727551887237,0.326
-4.85154941652893,4.98172348351239,0.327
-5.10058676426146,5.23830432601943,0.328
-5.34847277693097,5.49703759589681,0.329
-5.59497728688912,5.75765941814103,0.33
-5.83986995096392,6.01989924707931,0.331
-6.08292056357568,6.28348026655994,0.332
-6.32389937138392,6.54811980416048,0.333
-6.5625773889413,6.81352975868315,0.334
-6.7987267148273,7.07941704017856,0.335
-7.03212084773218,7.34548402171112,0.336
-7.26253500196001,7.61142900205386,0.337
-7.48974642181951,7.87694667847616,0.338
-7.71353469437171,8.14172862876474,0.339
-7.93368206000512,8.40546380159808,0.34
-8.14997372031154,8.66783901437447,0.341
-8.36219814273915,8.92853945757671,0.342
-8.57014736150403,9.18724920474118,0.343
-8.77361727424652,9.44365172708424,0.344
-8.9724079339254,9.69743041182815,0.345
-9.16632383545001,9.9482690832577,0.346
-9.35517419655884,10.1958525255314,0.347
-9.53877323246202,10.4398670062645,0.348
-9.71694042377552,10.6800007998966,0.349
-9.88950077728558,10.9159447098565,0.35
-10.0562850790937,11.1473925885329,0.351
-10.2171301397055,11.3740418540662,0.352
-10.371879030639,11.5955940029758,0.353
-10.5203813121451,11.8117551176468,0.354
-10.6624932516428,12.0222363677063,0.355
-10.7980780324945,12.2267545043286,0.356
-10.927005952756,12.4250323465211,0.357
-11.0491546135582,12.616799258458,0.358
-11.1644090967933,12.8017916169409,0.359
-11.272662131796,12.9797532680861,0.36
-11.3738142507307,13.1504359723565,0.361
-11.4677739324153,13.313599837077,0.362
-11.5544577343291,13.469013735595,0.363
-11.6337904125793,13.6164557122743,0.364
-11.7057050296128,13.7557133725339,0.365
-11.7701430494907,13.886584257173,0.366
-11.8270544205568,14.0088762002536,0.367
-11.8763976453581,14.1224076698417,0.368
-11.9181398376966,14.2270080909415,0.369
-11.9522567667127,14.3225181499906,0.37
-11.9787328879257,14.4087900803186,0.371
-11.9975613611771,14.4856879280112,0.372
-12.0087440554485,14.5530877976541,0.373
-12.0122915405458,14.610878077475,0.374
-12.0082230656671,14.6589596434382,0.375
-11.9965665248924,14.6972460418894,0.376
-11.9773584096585,14.7256636503871,0.377
-11.950643748304,14.7441518164031,0.378
-11.9164760327914,14.7526629736124,0.379
-11.8749171327379,14.7511627355421,0.38
-11.826037196907,14.7396299663886,0.381
-11.7699145423349,14.7180568288582,0.382
-11.7066355312896,14.6864488089322,0.383
-11.6362944362785,14.6448247175008,0.384
-11.5589932933439,14.5932166688564,0.385
-11.4748417439056,14.5316700360804,0.386
-11.3839568654286,14.4602433834069,0.387
-11.2864629912144,14.3790083756849,0.388
-11.1824915196337,14.288049665112,0.389
-11.0721807131351,14.1874647554536,0.39
-10.9556754873827,14.0773638440045,0.391
-10.8331271908934,13.957869641597,0.392
-10.7046933755595,13.8291171709985,0.393
-10.5705375584577,13.6912535440864,0.394
-10.4308289753628,13.5444377182281,0.395
-10.2857423263944,13.3888402323345,0.396
-10.1354575142418,13.2246429230961,0.397
-9.98015937542181,13.0520386219463,0.398
-9.82003740503791,12.8712308333382,0.399
-9.65528547551765,12.6824333949532,0.4
-9.48610154981646,12.4858701204964,0.401
-9.31268738958362,12.2817744257689,0.402
-9.13524825879492,12.0703889387345,0.403
-8.95399262336225,11.8519650943355,0.404
-8.76913184723718,11.6267627148344,0.405
-8.58087988552979,11.3950495764918,0.406
-8.38945297516835,11.1571009634124,0.407
-8.19506932362774,10.9131992094173,0.408
-7.99794879625708,10.6636332288224,0.409
-7.79831260273726,10.4086980370234,0.41
-7.59638298319921,10.1486942618059,0.411
-7.3923828945327,9.8839276463178,0.412
-7.18653569741296,9.61470854465265,0.413
-6.97906484456948,9.34135141100989,0.414
-6.7701935708173,9.06417428340461,0.415
-6.56014458536561,8.78349826291119,0.416
-6.34913976691273,8.49964698943116,0.417
-6.13739986202929,8.2129461149801,0.418
-5.92514418732344,7.9237227754921,0.419
-5.71259033587311,7.63230506214031,0.42
-5.49995388840025,7.33902149317128,0.421
-5.28744812965162,7.04420048724761,0.422
-5.07528377043866,6.74816983928765,0.423
-4.86366867577708,6.45125619978415,0.424
-4.65280759955293,6.15378455857415,0.425
-4.44290192612857,5.85607773402131,0.426
-4.23414941928659,5.55845586855841,0.427
-4.02674397889461,5.26123593152279,0.428
-3.82087540565741,4.96473123020044,0.429
-3.61672917430634,4.66925092997541,0.43
-3.41448621555798,4.37509958446072,0.431
-3.21432270715644,4.08257667646445,0.432
-3.01640987429476,3.7919761706204,0.433
-2.82091379969186,3.50358607848718,0.434
-2.62799524358184,3.217688036892,0.435
-2.4378094738525,2.93455690026654,0.436
-2.25050610654934,2.65446034769195,0.437
-2.0662289569408,2.3776585053381,0.438
-1.88511590131918,2.10440358494936,0.439
-1.70729874969057,1.83493953899423,0.44
-1.53290312948541,1.56950173306133,0.441
-1.36204838039975,1.30831663604678,0.442
-1.19484746045537,1.05160152864087,0.443
-1.03140686334505,0.799564230582942,0.444
-0.87182654710728,0.552402847113936,0.445
-0.716199874152931,0.310305535015804,0.446
-0.564613562644425,0.0734502885858844,0.447
-0.417147649206186,-0.157995254147194,0.448
-0.27387546292365,-0.383873984701674,0.449
-0.134863610566617,-0.604039476693033,0.45
-0.000171972951602484,-0.818356117477549,0.451
0.130146287663041,-1.02669921875321,0.452
0.256044709276034,-1.22895510602537,0.453
0.377483501083076,-1.42502118688782,0.454
0.494429503824484,-1.61480599811334,0.455
0.606856139726669,-1.79822923159088,0.456
0.71474335224231,-1.9752217391894,0.457
0.818077535812471,-2.14572551667115,0.458
0.916851455891554,-2.30969366681937,0.459
1.01106415949321,-2.46709034198697,0.46
1.1007208765317,-2.61789066631412,0.461
1.18583291224917,-2.762080637903,0.462
1.26641753103426,-2.89965701127787,0.463
1.34249783195202,-3.0306271604973,0.464
1.41410261631849,-3.15500892332362,0.465
1.48126624766654,-3.27283042689151,0.466
1.54402850446105,-3.38412989535367,0.467
1.60243442593321,-3.48895544001618,0.468
1.6565341514137,-3.58736483250992,0.469
1.7063827535541,-3.67942526157654,0.47
1.75204006583449,-3.76521307407848,0.471
1.79357050476266,-3.8448135008721,0.472
1.83104288717733,-3.9183203682111,0.473
1.86453024307331,-3.98583579537364,0.474
1.89410962437161,-4.04746987923206,0.475
1.91986191006122,-4.10334036650684,0.476
1.94187160814244,-4.1535723144686,0.477
1.96022665480331,-4.19829774087151,0.478
1.97501821126215,-4.2376552639199,0.479
1.98634045870891,-4.27178973308615,0.48
1.99429039177731,-4.30085185161253,0.481
1.99896761097807,-4.32499779154251,0.482
2.00047411452054,-4.34438880213767,0.483
1.99891408994644,-4.35919081254578,0.484
1.99439370599501,-4.36957402959214,0.485
