Drag (N),Lift (N),Time (s)
-5.26000000000005,5.76500000000005,0
-5.04544008299834,5.52377146006689,0.001
-4.83108095804023,5.28276740341907,0.002
-4.61712310035749,5.04221192760737,0.003
-4.40376635215828,4.80232835945598,0.004
-4.19120960761409,4.56333887155388,0.005
-3.97965049964167,4.32546410096781,0.006
-3.76928508907244,4.08892277091044,0.007
-3.56030755679668,3.85393131609148,0.008
-3.35290989946365,3.62070351247238,0.009
-3.14728162931134,3.38945011213609,0.01
-2.94360947869068,3.16037848397381,0.011
-2.74207710983933,2.93369226087862,0.012
-2.542864830449,2.70959099412304,0.013
-2.34614931555803,2.48826981558376,0.014
-2.15210333628775,2.26991910846053,0.015
-1.96089549592681,2.05472418711996,0.016
-1.77268997385183,1.84286498667651,0.017
-1.58764627775688,1.63451576290382,0.018
-1.40591900464622,1.42984480304887,0.019
-1.22765761102688,1.22901414810011,0.02
-1.05300619271802,1.03217932703772,0.021
-0.882103274673962,0.839489103570536,0.022
-0.715081611196993,0.65108523583934,0.023
-0.552067996894042,0.467102249540625,0.024
-0.393183088709133,0.287667224898211,0.025
-0.238541239340279,0.112899597882685,0.026
-0.0882503423258136,-0.0570890239495972,0.027
0.0575883109391597,-0.222195030655207,0.028
0.198880162020278,-0.38232296382695,0.029
0.335537503884749,-0.537385654958977,0.03
0.467479586780494,-0.687304348001704,0.031
0.594632711394593,-0.832008805885913,0.032
0.716930309158281,-0.971437400827126,0.033
0.834313009592281,-1.1055371882535,0.034
0.946728694612883,-1.23426396423297,0.035
1.054132539746,-1.35758230630787,0.036
1.15648704222321,-1.47546559767848,0.037
1.25376203596074,-1.58789603470947,0.038
1.34593469344883,-1.69486461776652,0.039
1.43298951460591,-1.79637112542337,0.04
1.51491830267814,-1.89242407211232,0.041
1.59172012729131,-1.98304064932398,0.042
1.66340127478771,-2.06824665049482,0.043
1.72997518600652,-2.14807637975296,0.044
1.79146238169099,-2.22257254472483,0.045
1.84789037573067,-2.2917861336367,0.046
1.89929357647087,-2.35577627697612,0.047
1.94571317634528,-2.4146100940087,0.048
1.98719703011048,-2.4683625244758,0.049
2.02379952198356,-2.51711614582755,0.05
2.05558142200529,-2.56096097637436,0.051
2.08260973197256,-2.59999426476796,0.052
2.10495752130329,-2.63432026624936,0.053
2.12270375321655,-2.66405000612788,0.054
2.13593310162869,-2.68930103097984,0.055
2.14473575918353,-2.71019714807997,0.056
2.14920723685133,-2.72686815360151,0.057
2.14944815554611,-2.73944955014306,0.058
2.14556403022577,-2.74808225416093,0.059
2.13766504695226,-2.75291229390562,0.06
2.12586583340155,-2.7540904984794,0.061
2.110285223324,-2.75177217864923,0.062
2.09104601546579,-2.74611680006524,0.063
2.06827472747088,-2.73728764954973,0.064
2.0421013452904,-2.72545149513459,0.065
2.01265906863307,-2.71077824053755,0.066
1.98008405299536,-2.69344057477764,0.067
1.94451514881404,-2.67361361763978,0.068
1.90609363828691,-2.65147456170577,0.069
1.86496297040885,-2.62720231167566,0.07
1.82126849477095,-2.60097712170762,0.071
1.7751571946696,-2.57298023150837,0.072
1.72677742007055,-2.5433935019077,0.073
1.67627862096969,-2.51239905065095,0.074
1.62381108168806,-2.48017888914234,0.075
1.56952565663296,-2.44691456086936,0.076
1.51357350805065,-2.41278678223431,0.077
1.45610584628797,-2.37797508651335,0.078
1.3972736730717,-2.3426574716568,0.079
1.33722752830421,-2.30701005263548,0.08
1.27611724086312,-2.27120671902833,0.081
1.2140916838805,-2.23541879853492,0.082
1.15129853496422,-2.19981472708412,0.083
1.08788404180984,-2.16455972619576,0.084
1.02399279363669,-2.12981548823697,0.085
0.959767498865728,-2.09573987019801,0.086
0.895348769440284,-2.06248659659456,0.087
0.830874912173099,-2.03020497208406,0.088
0.766481727484848,-1.99903960436352,0.089
0.702302315880372,-1.96913013789429,0.09
0.638466892489057,-1.94061099897697,0.091
0.575102609975548,-1.91361115267564,0.092
0.512333390106049,-1.88825387206594,0.093
0.450279764234008,-1.86465652025569,0.094
0.389058722947066,-1.84293034560019,0.095
0.328783575094807,-1.82318029050666,0.096
0.269563816394078,-1.80550481419424,0.097
0.211505007785608,-1.7899957297464,0.098
0.154708663692311,-1.77673805576333,0.099
0.099272150306124,-1.76580988289113,0.1
0.04528859400648,-1.7572822554738,0.101
-0.00715320001024819,-1.75121906854236,0.102
-0.0579688188349176,-1.74767698032379,0.103
-0.107078302651822,-1.74670534041971,0.104
-0.154406195239176,-1.74834613377255,0.105
-0.199881584179815,-1.75263394050373,0.106
-0.243438130821574,-1.75959591167543,0.107
-0.28501409005012,-1.76925176099442,0.108
-0.324552319960044,-1.78161377244288,0.109
-0.362000281532731,-1.79668682378851,0.11
-0.397310028451848,-1.81446842589235,0.111
-0.430438187209222,-1.83494877770043,0.112
-0.461345927675246,-1.85811083677226,0.113
-0.489998924328943,-1.88393040516687,0.114
-0.516367308363058,-1.91237623047487,0.115
-0.54042561089934,-1.94341012175357,0.116
-0.562152697568174,-1.97698708009077,0.117
-0.581531694725124,-2.01305544349245,0.118
-0.598549907594533,-2.05155704575935,0.119
-0.613198730647166,-2.09242738898826,0.12
-0.625473550534927,-2.13559582930531,0.121
-0.635373641920797,-2.18098577541055,0.122
-0.642902056556489,-2.22851489948635,0.123
-0.648065505973649,-2.27809535999628,0.124
-0.65087423816686,-2.32963403587559,0.125
-0.651341908658237,-2.38303277159111,0.126
-0.649485446343781,-2.43818863252473,0.127
-0.645324914531233,-2.49499417011345,0.128
-0.638883367587521,-2.55333769615774,0.129
-0.630186703621369,-2.61310356569096,0.13
-0.619263513632897,-2.67417246778431,0.131
-0.606144927567374,-2.73642172364456,0.132
-0.590864457714448,-2.79972559134674,0.133
-0.573457839897275,-2.86395557652952,0.134
-0.553962872898009,-2.928980748368,0.135
-0.532419256567047,-2.99466806012777,0.136
-0.508868429063236,-3.06088267359365,0.137
-0.483353403671054,-3.12748828665834,0.138
-0.455918605638425,-3.19434746334923,0.139
-0.426609709475478,-3.26132196556607,0.14
-0.395473477150085,-3.32827308579817,0.141
-0.362557597610582,-3.39506198008783,0.142
-0.32791052805952,-3.46155000050519,0.143
-0.291581337394827,-3.52759902640091,0.144
-0.253619552226239,-3.59307179370506,0.145
-0.214075005865411,-3.65783222154441,0.146
-0.172997690677711,-3.72174573545556,0.147
-0.130437614172413,-3.7846795864784,0.148
-0.0864446591958014,-3.8465031654224,0.149
-0.0410684485786772,-3.90708831160849,0.15
0.00564178542410149,-3.96630961540023,0.151
0.0536373265790303,-4.02404471385108,0.152
0.102870094696689,-4.08017457880878,0.153
0.153292759940231,-4.13458379683337,0.154
0.204858851144808,-4.18716084030248,0.155
0.257522857890479,-4.23779832909631,0.156
0.311240326089084,-4.28639328227356,0.157
0.365967946864053,-4.33284735917169,0.158
0.421663638521079,-4.37706708938621,0.159
0.478286621427002,-4.4189640911075,0.16
0.535797485634062,-4.45845527731844,0.161
0.594158251106841,-4.49546304938136,0.162
0.653332420429656,-4.52991547756989,0.163
0.713285023892894,-4.56174646812886,0.164
0.773982656877686,-4.59089591647417,0.165
0.835393509479361,-4.61730984617388,0.166
0.897487388331318,-4.64094053338238,0.167
0.960235730612118,-4.66174661643049,0.168
1.02361161023985,-4.67969319030611,0.169
1.08758973627898,-4.69475188579264,0.17
1.1521464436059,-4.70690093306529,0.171
1.2172596759004,-4.71612520957888,0.172
1.28290896105087,-4.72241627211482,0.173
1.34907537908163,-4.72577237288919,0.174
1.41574152273079,-4.7261984596583,0.175
1.48289145082706,-4.72370615979318,0.176
1.55051063463314,-4.71831374832913,0.177
1.61858589734242,-4.71004610003171,0.178
1.6871053469343,-4.69893462555548,0.179
1.7560583026112,-4.68501719180662,0.18
1.82543521505804,-4.66833802665563,0.181
1.8952275807814,-4.64894760818073,0.182
1.96542785080223,-4.62690253865678,0.183
2.03602933399095,-4.60226540353872,0.184
2.10702609534883,-4.57510461572174,0.185
2.17841284955355,-4.54549424539357,0.186
2.2501848501,-4.51351383582654,0.187
2.32233777437959,-4.47924820548889,0.188
2.39486760505338,-4.44278723688573,0.189
2.46777050808448,-4.4042256525705,0.19
2.54104270780536,-4.36366277879686,0.191
2.61468035940438,-4.3212022973097,0.192
2.68867941922377,-4.27695198580132,0.193
2.76303551326853,-4.23102344758535,0.194
2.83774380433126,-4.18353183106612,0.195
2.91279885814331,-4.13459553960595,0.196
2.9881945089667,-4.08433593241508,0.197
3.06392372504374,-4.03287701711141,0.198
3.13997847432399,-3.98034513461714,0.199
3.21634959088864,-3.9268686370788,0.2
3.29302664249251,-3.87257755951473,0.201
3.36999779964284,-3.81760328591023,0.202
3.44724970663192,-3.76207821049551,0.203
3.52476735493737,-3.70613539495475,0.204
3.60253395940003,-3.6499082223262,0.205
3.68053083758404,-3.59353004836352,0.206
3.75873729271768,-3.53713385113694,0.207
3.83713050060659,-3.4808518796598,0.208
3.91568540090267,-3.42481530233115,0.209
3.99437459310328,-3.36915385598884,0.21
4.0731682376453,-3.31399549636928,0.211
4.1520339624478,-3.25946605077028,0.212
4.23093677524546,-3.20568887371202,0.213
4.30983898204244,-3.15278450638778,0.214
4.38870011200283,-3.1008703406915,0.215
4.46747684907994,-3.05006028860243,0.216
4.54612297067161,-3.00046445769894,0.217
4.62458929357329,-2.95218883356376,0.218
4.70282362748412,-2.90533496983118,0.219
4.7807707363045,-2.85999968661362,0.22
4.85837230744586,-2.81627477803018,0.221
4.93556692935548,-2.77424672954327,0.222
5.0122900774401,-2.73399644579156,0.223
5.0884741085533,-2.69559898958776,0.224
5.16404826419178,-2.65912333272912,0.225
5.2389386825255,-2.6246321192456,0.226
5.31306841936663,-2.59218144168717,0.227
5.38635747816098,-2.56182063102634,0.228
5.45872284906516,-2.53359206072525,0.229
5.53007855715095,-2.50753096548917,0.23
5.60033571975727,-2.48366527519897,0.231
5.66940261298858,-2.4620154644849,0.232
5.7371847473367,-2.44259441837278,0.233
5.80358495238152,-2.42540731440136,0.234
5.8685034705045,-2.41045152157618,0.235
5.93183805952689,-2.39771651649109,0.236
5.99348410416365,-2.38718381691346,0.237
6.05333473616213,-2.37882693309326,0.238
6.11128096297378,-2.37261133701957,0.239
6.16721180478626,-2.36849444981114,0.24
6.2210144397225,-2.36642564738939,0.241
6.2725743569931,-2.36634628454458,0.242
6.32177551776871,-2.36818973746684,0.243
6.36850052351937,-2.37188146477511,0.244
6.4126307915489,-2.37733908703761,0.245
6.45404673743393,-2.38447248473844,0.246
6.49262796405929,-2.39318391460519,0.247
6.52825345692414,-2.40336814417331,0.248
6.56080178537639,-2.41491260442359,0.249
6.59015130941731,-2.42769756028987,0.25
6.61618039170232,-2.44159629879538,0.251
6.63876761435007,-2.45647533453758,0.252
6.6577920001575,-2.472194632203,0.253
6.67313323780596,-2.48860784575628,0.254
6.68467191063124,-2.50556257391038,0.255
6.69228972851876,-2.52290063144847,0.256
6.69586976247533,-2.54045833593266,0.257
6.69529668141872,-2.55806680929951,0.258
6.69045699071824,-2.57555229380862,0.259
6.68123927201164,-2.59273648177742,0.26
6.667534423817,-2.6094368585035,0.261
6.6492359024528,-2.62546705774479,0.262
6.6262399627744,-2.64063722909837,0.263
6.59844589823192,-2.65475441659022,0.264
6.5657562797514,-2.66762294776114,0.265
6.52807719294006,-2.67904483250818,0.266
6.4853184731154,-2.68882017091677,0.267
6.4373939376589,-2.69674756929576,0.268
6.38422161519616,-2.70262456360631,0.269
6.32572397110808,-2.70624804945586,0.27
6.26182812888143,-2.70741471781022,0.271
6.19246608681152,-2.70592149556049,0.272
6.1175749295756,-2.70156599006684,0.273
6.03709703420212,-2.69414693678796,0.274
5.95098026996879,-2.68346464909424,0.275
5.8591781917711,-2.66932146935296,0.276
5.76165022651242,-2.65152222036651,0.277
5.65836185207763,-2.62987465623892,0.278
5.5492847684637,-2.6041899117423,0.279
5.43439706065307,-2.5742829492526,0.28
5.31368335282923,-2.53997300232471,0.281
5.18713495354779,-2.50108401497817,0.282
5.05474999149181,-2.45744507576928,0.283
4.91653354145582,-2.40889084573067,0.284
4.77249774021959,-2.35526197926742,0.285
4.62266189199034,-2.29640553710828,0.286
4.46705256311002,-2.23217539042197,0.287
4.30570366574325,-2.16243261522212,0.288
4.13865653028089,-2.08704587619934,0.289
3.96595996621436,-2.00589179913618,0.29
3.78767031125635,-1.91885533107945,0.291
3.60385146850496,-1.82583008746511,0.292
3.41457493146966,-1.72671868541303,0.293
3.21991979679991,-1.62143306243323,0.294
3.01997276457946,-1.50989477981073,0.295
2.81482812607245,-1.39203530996339,0.296
2.60458773883048,-1.26779630709603,0.297
2.38936098909338,-1.13712986050437,0.298
2.16926474143985,-0.999998729914084,0.299
1.94442327566837,-0.856376562273417,0.3
1.71496821091223,-0.706248089452216,0.301
1.48103841701706,-0.54960930633595,0.302
1.24277991323312,-0.386467628840097,0.303
1.00034575429849,-0.21684203140831,0.304
0.753895904013727,-0.0407631635966998,0.305
0.503597096432113,0.141726554613429,0.306
0.249622684813411,0.330572859091253,0.307
-0.00784752148723563,0.525709589695766,0.308
-0.268627432000555,0.727058660511704,0.309
-0.532524861776713,0.934530052372012,0.31
-0.799341729430792,1.14802182781336,0.311
-1.06887426633743,1.36742016856726,0.312
-1.34091323669015,1.59259943564498,0.313
-1.61524416811939,1.82342225202997,0.314
-1.89164759254263,2.05973960794674,0.315
-2.16989929689947,2.30139098863016,0.316
-2.44977058340502,2.54820452447454,0.317
-2.73102853893586,2.79999716339676,0.318
-3.01343631314439,3.05657486520364,0.319
-3.29675340487987,3.31773281770891,0.32
-3.58073595647737,3.58325567430156,0.321
-3.86513705545993,3.85291781262384,0.322
-4.14970704318363,4.12648361397425,0.323
-4.43419382994118,4.40370776300844,0.324
-4.71834321602567,4.68433556726967,0.325
-5.00189921824363,4.96810329603956,0.326
-5.28460440135492,5.25473853796004,0.327
-5.56620021390575,5.54396057683869,0.328
-5.84642732791166,5.83548078501172,0.329
-6.1250259818385,6.12900303360238,0.33
-6.40173632632107,6.42422411897696,0.331
-6.67629877205312,6.72083420466676,0.332
-6.94845433927584,7.01851727799125,0.333
-7.21794500828785,7.31695162058679,0.334
-7.48451407039586,7.6158102920152,0.335
-7.74790647872247,7.91476162559829,0.336
-8.00786919828643,8.21346973559807,0.337
-8.26415155477002,8.51159503483732,0.338
-8.51650558138905,8.80879476183207,0.339
-8.76468636328274,9.10472351648635,0.34
-9.00845237884352,9.39903380337992,0.341
-9.24756583741097,9.69137658166222,0.342
-9.48179301275886,9.98140182055011,0.343
-9.71090457181061,10.2687590594131,0.344
-9.9346758980254,10.5530979714185,0.345
-10.1528874089056,10.8340689296985,0.346
-10.3653248670852,11.1113235749951,0.347
-10.5717796844692,11.3845153837303,0.348
-10.7720492189052,11.6533002354495,0.349
-10.9659370628812,11.9173369785818,0.35
-11.1532533237541,12.1762879934614,0.351
-11.3338148950333,12.4298197515597,0.352
-11.5074457182502,12.6776033698808,0.353
-11.67397703497,12.9193151594794,0.354
-11.8332476285094,13.1546371670715,0.355
-11.9851040549494,13.3832577087177,0.356
-12.1294008630445,13.6048718945726,0.357
-12.2660008026535,13.8191821437096,0.358
-12.3947750213316,14.0258986880467,0.359
-12.5156032487502,14.2247400644194,0.36
-12.6283739686255,14.4154335938661,0.361
-12.7329845778635,14.5977158472169,0.362
-12.8293415326474,14.771333096099,0.363
-12.9173604812203,14.9360417485009,0.364
-12.9969663831341,15.0916087680646,0.365
-13.0680936147635,15.2378120763046,0.366
-13.1306860609058,15.3744409369868,0.367
-13.1846971923116,15.5012963219307,0.368
-13.2300901290165,15.6181912575353,0.369
-13.2668376893679,15.7249511513633,0.37
-13.2949224246682,15.8214140981586,0.371
-13.3143366393765,15.9074311647078,0.372
-13.3250823968418,15.9828666529991,0.373
-13.3271715105604,16.0475983411716,0.374
-13.3206255209795,16.1015177017903,0.375
-13.3054756578924,16.1445300970269,0.376
-13.2817627884956,16.176554950368,0.377
-13.2495373512048,16.1975258945196,0.378
-13.2088592753489,16.2073908952205,0.379
-13.1597978868882,16.2061123507241,0.38
-13.1024318003255,16.193667166755,0.381
-13.0368487970045,16.1700468067929,0.382
-12.9631456900107,16.1352573175843,0.383
-12.8814281759156,16.0893193298299,0.384
-12.7918106736277,16.0322680340433,0.385
-12.694416150633,15.9641531316232,0.386
-12.5893759369327,15.8850387612319,0.387
-12.4768295270056,15.7950034006154,0.388
-12.3569243701416,15.6941397440525,0.389
-12.2298156495148,15.5825545556639,0.39
-12.095666050382,15.4603684988599,0.391
-11.9546455178113,15.3277159422503,0.392
-11.8069310043624,15.1847447423855,0.393
-11.6527062081581,15.0316160037429,0.394
-11.4921613018003,14.8685038164147,0.395
-11.325492652601,14.6955949719959,0.396
-11.1529025346109,14.5130886582156,0.397
-10.9745988329421,14.3211961328896,0.398
-10.7907947408943,14.1201403778189,0.399
-10.6017084504034,13.9101557332886,0.4
-10.4075628363431,13.6914875138656,0.401
-10.2085851352181,13.4643916062241,0.402
-10.0050066187972,13.2291340497634,0.403
-9.79706226323961,12.9859906008145,0.404
-9.5849904142756,12.7352462812622,0.405
-9.36903244900714,12.4771949124397,0.406
-9.14943243489729,12.2121386351772,0.407
-8.92643678652113,11.9403874169139,0.408
-8.7002939206521,11.6622585468059,0.409
-8.47125391025837,11.3780761197818,0.41
-8.23956813798368,11.0881705105216,0.411
-8.00548894968544,10.7928778383473,0.412
-7.76926930860036,10.492539424035,0.413
-7.53116245070437,10.1875012395656,0.414
-7.2914215418289,9.87811335184882,0.415
-7.05029933708968,9.56472936146019,0.416
-6.8080478431779,9.24770583744121,0.417
-6.56491798405541,8.92740174921587,0.418
-6.32115927058704,8.6041778966817,0.419
-6.07701947463368,8.27839633953313,0.42
-5.83274430811852,7.950419826875,0.421
-5.58857710756775,7.62061122817999,0.422
-5.34475852461429,7.28933296663875,0.423
-5.10152622293971,6.95694645594429,0.424
-4.85911458211541,6.62381154154211,0.425
-4.61775440878883,6.29028594736654,0.426
-4.37767265564495,5.95672472906976,0.427
-4.13909214855641,5.62347973473453,0.428
-3.90223132231856,5.290899074044,0.429
-3.66730396534748,4.95932659686249,0.43
-3.43451897370073,4.62910138215977,0.431
-3.20408011476093,4.30055723818794,0.432
-2.97618580090293,3.97402221479529,0.433
-2.75102887344462,3.64981812873454,0.434
-2.52879639716094,3.32826010279444,0.435
-2.30966946561927,3.00965611955388,0.436
-2.0938230175727,2.69430659052579,0.437
-1.88142566462607,2.38250394142529,0.438
-1.67263953036696,2.07453221426204,0.439
-1.46762010113159,1.7706666869208,0.44
-1.26651608855294,1.47117351085738,0.441
-1.06946930401515,1.1763093674989,0.442
-0.876614545115903,0.886321143897765,0.443
-0.688079494214727,0.601445628148856,0.444
-0.503984629122748,0.321909225037759,0.445
-0.324443145965981,0.0479276923461702,0.446
-0.149560894231457,-0.220294101802416,0.447
0.0205636760173228,-0.482562400216973,0.448
0.185839554791824,-0.738694756237447,0.449
0.346183200755415,-0.988520211406236,0.45
0.501518557806602,-1.23187945100624,0.451
0.651777059771182,-1.46862493730416,0.452
0.796897623327501,-1.69862102038309,0.453
0.936826629310065,-1.9217440264937,0.454
1.07151789255744,-2.13788232389882,0.455
1.20093262049057,-2.34693636623143,0.456
1.32503936062739,-2.54881871343099,0.457
1.44381393725851,-2.74345403036817,0.458
1.55723937752768,-2.93077906331187,0.459
1.66530582717809,-3.11074259443686,0.46
1.76801045624332,-3.28330537461329,0.461
1.865357354978,-3.44844003476216,0.462
1.957357420339,-3.60613097610263,0.463
2.04402823334318,-3.75637423965826,0.464
2.12539392764198,-3.89917735542921,0.465
2.20148504966636,-4.03455917167667,0.466
2.27233841070842,-4.1625496648039,0.467
2.33799693131772,-4.2831897303549,0.468
2.3985094784011,-4.39653095568771,0.469
2.45393069542485,-4.50263537491326,0.47
2.50432082612709,-4.60157520672414,0.471
2.54974553215632,-4.69343257576855,0.472
2.5902757050593,-4.77829921825532,0.473
2.62598727304763,-4.85627617250389,0.474
2.65696100297765,-4.92747345517996,0.475
2.68328229798251,-4.99200972398305,0.476
2.70504099119875,-5.05001192757495,0.477
2.72233113603192,-5.10161494356042,0.478
2.73525079340709,-5.14696120535065,0.479
2.74390181645074,-5.18620031875844,0.48
2.74838963304984,-5.21948866919,0.481
2.74882302673217,-5.24698902031233,0.482
2.74531391630999,-5.26887010508764,0.483
2.7379771347253,-5.28530621007646,0.484
2.72693020753069,-5.29647675391937,0.485
