Drag (N),Lift (N),Time (s)
-4.091,7.08600000000001,0
-4.07879440059299,7.04804275878575,0.001
-4.06655329843137,7.01004059927122,0.002
-4.05424125688156,6.97194868938845,0.003
-4.04182297134942,6.93372236933693,0.004
-4.02926333479419,6.89531723722486,0.005
-4.01652750263768,6.8566892341209,0.006
-4.00358095687113,6.81779472832282,0.007
-3.99038956916495,6.77859059865121,0.008
-3.97691966279092,6.73903431657959,0.009
-3.96313807317103,6.69908402701529,0.01
-3.94901220687262,6.65869862754968,0.011
-3.93451009887581,6.61783784600032,0.012
-3.91960046794595,6.57646231607261,0.013
-3.90425276995166,6.53453365097414,0.014
-3.88843724897697,6.49201451482025,0.015
-3.87212498608506,6.44886869167604,0.016
-3.85528794560034,6.40506115208648,0.017
-3.83789901878569,6.36055811695366,0.018
-3.81993206480167,6.31532711862725,0.019
-3.80136194884587,6.26933705908275,0.02
-3.78216457738115,6.22255826506964,0.021
-3.76231693037354,6.17496254012049,0.022
-3.74179709047198,6.12652321332066,0.023
-3.72058426907459,6.0772151847473,0.024
-3.69865882923791,6.02701496749565,0.025
-3.67600230539841,5.97590072622003,0.026
-3.6525974198876,5.92385231212647,0.027
-3.628428096235,5.87085129436385,0.028
-3.60347946926538,5.81688098777008,0.029
-3.57773789200922,5.76192647693979,0.03
-3.55119093945768,5.70597463659001,0.031
-3.52382740920534,5.64901414821018,0.032
-3.49563731903585,5.59103551299277,0.033
-3.46661190151744,5.53203106105068,0.034
-3.43674359568601,5.47199495693718,0.035
-3.40602603590489,5.41092320149408,0.036
-3.37445403800055,5.34881363006281,0.037
-3.34202358278338,5.285665907103,0.038
-3.30873179707242,5.22148151727155,0.039
-3.27457693235149,5.15626375302443,0.04
-3.2395583411926,5.09001769881186,0.041
-3.20367645159028,5.02275021194572,0.042
-3.16693273935717,4.95446990022586,0.043
-3.12932969873765,4.88518709641976,0.044
-3.09087081140203,4.81491382969697,0.045
-3.05156051398821,4.74366379412642,0.046
-3.0114041643621,4.67145231435141,0.047
-2.97040800677129,4.59829630856263,0.048
-2.92857913606862,4.52421424889508,0.049
-2.8859254611844,4.44922611938004,0.05
-2.84245566802635,4.37335337158713,0.051
-2.79817918198666,4.29661887809626,0.052
-2.75310613023451,4.21904688394193,0.053
-2.70724730397079,4.14066295617613,0.054
-2.66061412081942,4.06149393169782,0.055
-2.61321858752589,3.98156786349947,0.056
-2.56507326313025,3.90091396548214,0.057
-2.51619122277627,3.81956255599172,0.058
-2.46658602231334,3.73754500022929,0.059
-2.41627166384099,3.65489365168817,0.06
-2.36526256233917,3.57164179276998,0.061
-2.31357351351948,3.48782357473053,0.062
-2.2612196630244,3.40347395710494,0.063
-2.20821647709242,3.3186286467591,0.064
-2.1545797147977,3.23332403671226,0.065
-2.10032540196275,3.14759714487236,0.066
-2.04546980683214,3.06148555282226,0.067
-1.99002941758451,2.97502734479143,0.068
-1.93402092174876,2.88826104694316,0.069
-1.87746118757868,2.80122556710325,0.07
-1.82036724742871,2.71396013505062,0.071
-1.7627562831612,2.62650424348589,0.072
-1.70464561360352,2.53889758978789,0.073
-1.64605268406097,2.45118001866269,0.074
-1.58699505787928,2.36339146578394,0.075
-1.52749041003803,2.2755719025169,0.076
-1.46755652274423,2.18776128181271,0.077
-1.40721128298322,2.09999948535277,0.078
-1.34647268197195,2.01232627201706,0.079
-1.28535881644863,1.92478122774322,0.08
-1.2238878917207,1.8374037168374,0.081
-1.16207822638282,1.75023283479068,0.082
-1.09994825860567,1.66330736264906,0.083
-1.03751655388634,1.57666572297814,0.084
-0.974801814141957,1.49034593745774,0.085
-0.911822888018611,1.40438558613519,0.086
-0.848598782280104,1.31882176836043,0.087
-0.785148674132771,1.23369106541999,0.088
-0.721491924336082,1.14902950488135,0.089
-0.657648090942409,1.06487252665402,0.09
-0.593636943503961,0.981254950768467,0.091
-0.529478477580334,0.898210946869085,0.092
-0.46519292937635,0.815774005413166,0.093
-0.400800790337004,0.733976910563361,0.094
-0.336322821524334,0.652851714757402,0.095
-0.271780067599952,0.57242971493525,0.096
-0.207193870236783,0.492741430400656,0.097
-0.142585880784334,0.413816582291293,0.098
-0.0779780720134519,0.335684074629135,0.099
-0.0133927487691779,0.258371976920659,0.1
0.0511474426362171,0.181907508274682,0.101
0.115619506453458,0.10631702300429,0.102
0.180000091107883,0.0316259976782431,0.103
0.24426548454436,-0.0421409804133731,0.104
0.308391611450319,-0.114960223414886,0.105
0.372354032493843,-0.186808951717755,0.106
0.436127945704998,-0.257665301465572,0.107
0.499688190119144,-0.327508330786061,0.108
0.563009251790739,-0.396318024783865,0.109
0.626065272275227,-0.464075299326794,0.11
0.688830059665102,-0.530762003656824,0.111
0.75127710225404,-0.596360921855512,0.112
0.813379584890368,-0.660855773191737,0.113
0.875110408067916,-0.724231211377694,0.114
0.936442209788731,-0.786472822757011,0.115
0.997347390218141,-0.847567123446649,0.116
1.0577981391384,-0.907501555451981,0.117
1.11776646619258,-0.966264481772138,0.118
1.17722423389575,-1.02384518051038,0.119
1.23614319337556,-1.08023383800192,0.12
1.29449502278966,-1.13542154096939,0.121
1.35225136835238,-1.18940026771393,0.122
1.40938388788849,-1.24216287834782,0.123
1.46586429681735,-1.29370310407254,0.124
1.52166441645626,-1.34401553550458,0.125
1.57675622451797,-1.39309561004946,0.126
1.63111190766363,-1.44093959832324,0.127
1.6847039159593,-1.48754458961967,0.128
1.73750501907135,-1.53290847642018,0.129
1.78948836402407,-1.5770299379434,0.13
1.84062753433137,-1.61990842273078,0.131
1.89089661030348,-1.66154413026462,0.132
1.94027023031984,-1.70193799161561,0.133
1.98872365284974,-1.74109164911744,0.134
2.03623281899435,-1.77900743506744,0.135
2.08277441531588,-1.81568834945337,0.136
2.12832593671348,-1.85113803670869,0.137
2.17286574909965,-1.88536076150063,0.138
2.2163731516265,-1.91836138355809,0.139
2.25882843820796,-1.95014533154938,0.14
2.30021295808116,-1.98071857602301,0.141
2.34050917514951,-2.01008760142871,0.142
2.37970072584929,-2.03825937723941,0.143
2.41777247528287,-2.06524132819966,0.144
2.45471057136367,-2.09104130373037,0.145
2.49050249672097,-2.11566754652452,0.146
2.52513711811752,-2.1391286603739,0.147
2.55860473313776,-2.16143357727194,0.148
2.59089711391158,-2.18259152384353,0.149
2.62200754764584,-2.20261198715796,0.15
2.6519308737449,-2.22150467998746,0.151
2.6806635173108,-2.23927950557899,0.152
2.70820351882502,-2.25594652201337,0.153
2.73455055982497,-2.27151590623142,0.154
2.75970598440134,-2.28599791781255,0.155
2.7836728163559,-2.29940286259719,0.156
2.80645577187358,-2.31174105624974,0.157
2.82806126757798,-2.32302278786443,0.158
2.84849742385503,-2.3332582837212,0.159
2.86777406334627,-2.34245767130417,0.16
2.88590270452998,-2.35063094369915,0.161
2.90289655032613,-2.35778792449147,0.162
2.91877047167916,-2.36393823328874,0.163
2.93354098609062,-2.36909125199661,0.164
2.94722623109278,-2.37325609197859,0.165
2.95984593267291,-2.37644156223289,0.166
2.9714213686768,-2.37865613872148,0.167
2.98197532723953,-2.37990793498714,0.168
2.99153206031004,-2.38020467419526,0.169
3.00011723235528,-2.37955366273642,0.17
3.00775786434823,-2.37796176552553,0.171
3.01448227316271,-2.375435383131,0.172
3.02032000651564,-2.3719804308657,0.173
3.02530177361565,-2.36760231996797,0.174
3.02945937169344,-2.36230594099725,0.175
3.0328256086065,-2.35609564956434,0.176
3.03543422172623,-2.34897525451071,0.177
3.03731979333126,-2.34094800864539,0.178
3.03851766274474,-2.33201660214074,0.179
3.03906383546731,-2.32218315868108,0.18
3.03899488957015,-2.31144923444941,0.181
3.03834787962418,-2.2998158200286,0.182
3.03716023845229,-2.28728334528344,0.183
3.0354696770013,-2.27385168727952,0.184
3.03331408263884,-2.25952018128388,0.185
3.03073141618789,-2.24428763488054,0.186
3.02775960801816,-2.22815234522191,0.187
3.02443645351845,-2.21111211942425,0.188
3.02079950827828,-2.19316429810219,0.189
3.01688598330957,-2.17430578202386,0.19
3.01273264064087,-2.15453306185403,0.191
3.00837568961675,-2.13384225093861,0.192
3.00385068423375,-2.11222912106957,0.193
2.99919242184254,-2.08968914115452,0.194
2.99443484354186,-2.06621751870081,0.195
2.98961093658557,-2.04180924400928,0.196
2.98475263911798,-2.0164591369583,0.197
2.97989074754558,-1.99016189624422,0.198
2.97505482684531,-1.96291215093031,0.199
2.97027312409976,-1.93470451414236,0.2
2.96557248553974,-1.90553363873539,0.201
2.96097827736298,-1.87539427474323,0.202
2.95651431058538,-1.8442813284098,0.203
2.95220277016801,-1.81218992258927,0.204
2.9480641486487,-1.77911545829074,0.205
2.9441171844923,-1.74505367713286,0.206
2.94037880535772,-1.71000072446377,0.207
2.9368640764636,-1.67395321289306,0.208
2.93358615421726,-1.63690828597452,0.209
2.93055624525418,-1.5988636817714,0.21
2.92778357101709,-1.55981779603034,0.211
2.92527533798508,-1.51976974468481,0.212
2.92303671364483,-1.47871942540591,0.213
2.92107080827646,-1.43666757791541,0.214
2.91937866260757,-1.39361584277502,0.215
2.91795924136963,-1.34956681836571,0.216
2.9168094327715,-1.30452411577235,0.217
2.91592405388537,-1.25849241129145,0.218
2.91529586192155,-1.21147749628377,0.219
2.91491557134899,-1.16348632409871,0.22
2.91477187680014,-1.11452705380398,0.221
2.91485148168001,-1.06460909046203,0.222
2.91513913238125,-1.01374312170355,0.223
2.91561765798964,-0.961941150359157,0.224
2.91626801534714,-0.909216522921731,0.225
2.9170693393232,-0.855583953625067,0.226
2.91799899812932,-0.801059543938277,0.227
2.91903265349642,-0.745660797290834,0.228
2.92014432552031,-0.689406628859308,0.229
2.92130646196705,-0.632317370264213,0.23
2.92249001181679,-0.574414769043658,0.231
2.92366450281314,-0.51572198278967,0.232
2.92479812277376,-0.456263567853079,0.233
2.92585780440801,-0.396065462543567,0.234
2.92680931337802,-0.335154964772917,0.235
2.92761733933165,-0.273560704111476,0.236
2.92824558962843,-0.211312608250288,0.237
2.92865688547349,-0.148441863884235,0.238
2.92881326016922,-0.0849808720546431,0.239
2.92867605919027,-0.020963198013165,0.24
2.9282060417846,0.043576484307834,0.241
2.92736348380068,0.108602453109738,0.242
2.92610828144054,0.174078004695051,0.243
2.92440005563755,0.239965524432646,0.244
2.92219825675933,0.306226562543142,0.245
2.91946226933762,0.372821914504307,0.246
2.91615151653011,0.439711705854621,0.247
2.91222556402253,0.506855481151988,0.248
2.90764422308445,0.574212296824158,0.249
2.90236765249739,0.64174081762788,0.25
2.89635645908021,0.709399416415097,0.251
2.88957179654402,0.777146276886951,0.252
2.88197546241671,0.844939498999774,0.253
2.87352999278557,0.91273720667195,0.254
2.86419875461625,0.980497657426464,0.255
2.85394603541564,1.04817935359125,0.256
2.84273713001722,1.1157411546681,0.257
2.83053842427836,1.18314239047114,0.258
2.81731747549041,1.2503429746275,0.259
2.80304308931473,1.31730351802602,0.26
2.78768539307,1.38398544179496,0.261
2.77121590520907,1.45035108938591,0.262
2.75360760083649,1.51636383733949,0.263
2.73483497313134,1.58198820430847,0.264
2.71487409055357,1.64718995791519,0.265
2.69370264972556,1.71193621902406,0.266
2.67130002389464,1.7761955630145,0.267
2.64764730689605,1.83993811764688,0.268
2.62272735254989,1.90313565712217,0.269
2.5965248094394,1.9657616919465,0.27
2.56902615103183,2.02779155422339,0.271
2.54021970111688,2.08920247800984,0.272
2.51009565455133,2.14997367438757,0.273
2.47864609331188,2.21008640091705,0.274
2.44586499787149,2.26952402515972,0.275
2.41174825392745,2.3282720819734,0.276
2.37629365452214,2.38631832430608,0.277
2.33950089760977,2.4436527672353,0.278
2.30137157913447,2.50026772502327,0.279
2.26190918169687,2.55615784098156,0.28
2.22111905889734,2.61132010996461,0.281
2.17900841545519,2.6657538933365,0.282
2.13558628321337,2.71946092628251,0.283
2.09086349314829,2.77244531736383,0.284
2.0448526435138,2.82471354024157,0.285
1.99756806425733,2.87627441752449,0.286
1.94902577785471,2.9271390967233,0.287
1.8992434567182,2.97732101832283,0.288
1.84824037733953,3.02683587601263,0.289
1.79603737133675,3.07570156914466,0.29
1.74265677357994,3.12393814751598,0.291
1.68812236757665,3.17156774860207,0.292
1.63245932830301,3.21861452739488,0.293
1.57569416267128,3.26510457902681,0.294
1.51785464782835,3.31106585438906,0.295
1.45896976748358,3.35652806897857,0.296
1.39906964646687,3.40152260523358,0.297
1.33818548372036,3.44608240864192,0.298
1.2763494839291,3.49024187792995,0.299
1.2135947879967,3.53403674966222,0.3
1.14995540257318,3.57750397760323,0.301
1.08546612884193,3.62068160721243,0.302
1.02016249077227,3.66360864566256,0.303
0.954080663043055,3.70632492778812,0.304
0.887257398841333,3.74887097838674,0.305
0.819729957737707,3.79128787131034,0.306
0.751536033837592,3.83361708579544,0.307
0.68271368440435,3.8759003604929,0.308
0.613301259146633,3.91817954566671,0.309
0.543337330358144,3.96049645403867,0.31
0.472860624093383,4.00289271076206,0.311
0.401909952557895,4.04540960301085,0.312
0.33052414788597,4.08808792967371,0.313
0.258741997472809,4.13096785164226,0.314
0.186602181021748,4.17408874318188,0.315
0.114143209460378,4.21748904487016,0.316
0.0414033658721699,4.26120611858347,0.317
-0.031579351417294,4.30527610500537,0.318
-0.10476728346831,4.34973378412264,0.319
-0.178123162946322,4.39461243916449,0.32
-0.251610163818067,4.4399437244294,0.321
-0.325191948419046,4.48575753743063,0.322
-0.398832711795861,4.5320818957772,0.323
-0.472497223236325,4.57894281919091,0.324
-0.54615086490983,4.62636421704275,0.325
-0.619759667550221,4.67436778177324,0.326
-0.693290343123391,4.72297288854134,0.327
-0.766710314431903,4.77219650142565,0.328
-0.839987741619158,4.82205308647919,0.329
-0.913091545545957,4.87255453191616,0.33
-0.985991428022665,4.92371007568497,0.331
-1.05865788889063,4.97552624065693,0.332
-1.13106223995687,5.02800677763465,0.333
-1.2031766157966,5.08115261635788,0.334
-1.27497398144819,5.13496182465795,0.335
-1.34642813703594,5.189429575885,0.336
-1.4175137193655,5.24454812470471,0.337
-1.48820620054762,5.30030679133369,0.338
-1.55848188371475,5.35669195425524,0.339
-1.62831789590566,5.41368705142913,0.34
-1.69769217820166,5.4712725899819,0.341
-1.76658347320785,5.52942616433656,0.342
-1.83497130998114,5.58812248271345,0.343
-1.90283598651539,5.64733340190762,0.344
-1.97015854990223,5.70702797022144,0.345
-2.03692077429345,5.76717247840595,0.346
-2.10310513679857,5.82773051843919,0.347
-2.16869479145755,5.88866304994553,0.348
-2.23367354143523,5.94992847403675,0.349
-2.29802580958975,6.01148271433294,0.35
-2.36173660757241,6.07327930489978,0.351
-2.42479150362137,6.13526948481829,0.352
-2.48717658921541,6.1974022990836,0.353
-2.54887844475778,6.25962470551126,0.354
-2.60988410446281,6.32188168731226,0.355
-2.67018102062047,6.38411637098238,0.356
-2.7297570274155,6.44627014913704,0.357
-2.78860030447878,6.50828280790936,0.358
-2.84669934034882,6.57009265851798,0.359
-2.90404289602105,6.63163667260013,0.36
-2.96061996876113,6.69285062089726,0.361
-3.0164197563572,6.7536692148724,0.362
-3.07143162198314,6.81402625083301,0.363
-3.12564505984206,6.87385475612803,0.364
-3.17904966175521,6.93308713698525,0.365
-3.23163508485725,6.99165532755298,0.366
-3.28339102055344,7.04949093971042,0.367
-3.33430716488878,7.10652541321182,0.368
-3.38437319047258,7.16269016573288,0.369
-3.43357872009505,7.21791674239106,0.37
-3.48191330216472,7.27213696431807,0.371
-3.52936638808779,7.32528307586839,0.372
-3.57592731170134,7.37728789005677,0.373
-3.62158527086369,7.42808493182633,0.374
-3.66632931129521,7.47760857875983,0.375
-3.71014831275309,7.52579419885821,0.376
-3.75303097761315,7.57257828502323,0.377
-3.79496582192096,7.61789858589529,0.378
-3.83594116896351,7.66169423271184,0.379
-3.87594514540149,7.70390586186797,0.38
-3.91496567999055,7.74447573287738,0.381
-3.95299050490846,7.78334784144906,0.382
-3.99000715969306,7.82046802741363,0.383
-4.02600299778429,7.85578407725188,0.384
-4.06096519565171,7.88924582099743,0.385
-4.09488076447681,7.92080522330557,0.386
-4.1277365643482,7.95041646850058,0.387
-4.15951932091575,7.97803603943447,0.388
-4.19021564443864,8.00362279001163,0.389
-4.21981205115091,8.02713801125432,0.39
-4.24829498685766,8.04854549080615,0.391
-4.27565085266404,8.06781156579168,0.392
-4.30186603272946,8.08490516897185,0.393
-4.32692692392973,8.09979786815641,0.394
-4.35081996730054,8.11246389885578,0.395
-4.37353168112706,8.12288019017569,0.396
-4.39504869553663,8.13102638397867,0.397
-4.41535778844378,8.13688484735717,0.398
-4.43444592268995,8.14044067848262,0.399
-4.45230028421468,8.14168170591451,0.4
-4.46890832108884,8.14059848147246,0.401
-4.48425778323653,8.13718426679269,0.402
-4.49833676266793,8.13143501370794,0.403
-4.51113373404232,8.12334933860668,0.404
-4.52263759537853,8.11292849094446,0.405
-4.53283770872788,8.10017631609457,0.406
-4.5417239406248,8.08509921274111,0.407
-4.54928670212993,8.06770608503012,0.408
-4.55551698828171,8.04800828970834,0.409
-4.56040641677422,8.02601957849018,0.41
-4.56394726568194,8.00175603590518,0.411
-4.56613251005529,7.97523601288755,0.412
-4.56695585721522,7.94648005637897,0.413
-4.56641178058037,7.91551083522311,0.414
-4.56449555186602,7.88235306263773,0.415
-4.56120327150063,7.84703341555565,0.416
-4.55653189711334,7.80958045113107,0.417
-4.55047926995352,7.77002452071095,0.418
-4.54304413911252,7.72839768157425,0.419
-4.53422618342654,7.68473360674314,0.42
-4.52402603095,7.63906749317113,0.421
-4.51244527589876,7.59143596861229,0.422
-4.49948649297358,7.54187699747469,0.423
-4.4851532489855,7.49042978595821,0.424
-4.46945011171668,7.43713468677401,0.425
-4.45238265596188,7.38203310373805,0.426
-4.4339574667086,7.32516739652625,0.427
-4.4141821394259,7.26658078587231,0.428
-4.39306527744507,7.20631725948245,0.429
-4.37061648642773,7.14442147893341,0.43
-4.34684636593008,7.08093868781142,0.431
-4.3217664980847,7.01591462134066,0.432
-4.29538943343387,6.9493954177394,0.433
-4.26772867396152,6.88142753153179,0.434
-4.23879865338268,6.81205764903144,0.435
-4.20861471476209,6.74133260620176,0.436
-4.17719308554487,6.66929930908501,0.437
-4.14455085009437,6.59600465697982,0.438
-4.11070591984262,6.52149546853345,0.439
-4.07567700117024,6.44581841090155,0.44
-4.03948356114189,6.36901993211448,0.441
-4.00214579123374,6.29114619677518,0.442
-3.96368456919769,6.21224302519902,0.443
-3.92412141921572,6.13235583609224,0.444
-3.88347847050513,6.05152959285047,0.445
-3.84177841454245,5.96980875354482,0.446
-3.79904446107978,5.88723722464814,0.447
-3.75530029313258,5.80385831854002,0.448
-3.7105700211226,5.71971471481434,0.449
-3.66487813636309,5.63484842539934,0.45
-3.61824946407637,5.54930076348627,0.451
-3.57070911613576,5.46311231624885,0.452
-3.52228244372483,5.37632292132226,0.453
-3.47299499010729,5.28897164699796,0.454
-3.42287244369991,5.2010967760773,0.455
-3.37194059163948,5.11273579331505,0.456
-3.32022527403233,5.02392537637229,0.457
-3.26775233907141,4.93470139018662,0.458
-3.21454759920207,4.84509888465715,0.459
-3.16063678851255,4.75515209553146,0.46
-3.10604552151921,4.66489444837217,0.461
-3.05079925351032,4.57435856547196,0.462
-2.99492324260467,4.48357627557734,0.463
-2.93844251367311,4.39257862627402,0.464
-2.88138182426277,4.30139589887963,0.465
-2.82376563265391,4.21005762568335,0.466
-2.76561806816986,4.1185926093664,0.467
-2.70696290384941,4.02702894443247,0.468
-2.64782353158067,3.93539404047295,0.469
-2.58822293978333,3.84371464708864,0.47
-2.52818369371482,3.75201688028659,0.471
-2.46772791846333,3.6603262501691,0.472
-2.40687728467839,3.56866768973042,0.473
-2.34565299707673,3.47706558457627,0.474
-2.28407578574839,3.38554380338147,0.475
-2.22216590027487,3.29412572890199,0.476
-2.15994310665799,3.20283428935899,0.477
-2.09742668704517,3.11169199001505,0.478
-2.0346354422235,3.02072094476542,0.479
-1.97158769684232,2.92994290757087,0.48
-1.908301307311,2.83937930356265,0.481
-1.8447936723062,2.74905125965507,0.482
-1.78108174581062,2.6589796345064,0.483
-1.71718205259324,2.56918504767469,0.484
-1.65311070602963,2.47968790782147,0.485
-1.58888342814979,2.39050843982329,0.486
-1.52451557179034,2.30166671065813,0.487
-1.4600221447179,2.21318265394183,0.488
-1.39541783558098,2.12507609299748,0.489
