Drag (N),Lift (N),Time (s)
-0.237000000000001,3.058,0
-0.367065777573706,3.40791644501042,0.001
-0.497076217396513,3.75761561744948,0.002
-0.626975994051295,4.10688041100652,0.003
-0.756709806878257,4.45549405182932,0.004
-0.886222392577705,4.80324026459533,0.005
-1.01545853808067,5.14990343839276,0.006
-1.14436309377488,5.49526879234654,0.007
-1.27288098717217,5.83912254092342,0.008
-1.40095723710126,6.18125205884885,0.009
-1.52853696850808,6.52144604556673,0.01
-1.65556542794258,6.85949468917117,0.011
-1.78198799980863,7.19518982973716,0.012
-1.90775022344997,7.52832512197472,0.013
-2.03279781114152,7.85869619712855,0.014
-2.15707666705182,8.18610082404202,0.015
-2.28053290723759,8.51033906930184,0.016
-2.40311288072732,8.8312134563759,0.017
-2.52476319174582,9.14852912365387,0.018
-2.64543072312649,9.46209398129649,0.019
-2.76506266095301,9.77171886679549,0.02
-2.88360652046635,10.0772176991428,0.021
-3.00101017326745,10.3784076315034,0.022
-3.11722187583984,10.6751092022827,0.023
-3.23219029941042,10.9671464844745,0.024
-3.3458645611603,11.2543472331725,0.025
-3.45819425679124,11.5365430311241,0.026
-3.56912949444666,11.8135694322001,0.027
-3.67862092997955,12.0852661026517,0.028
-3.78661980355312,12.3514769600214,0.029
-3.89307797755283,12.6120503095695,0.03
-3.99794797578229,12.8668389780769,0.031
-4.10118302390818,13.1157004448782,0.032
-4.20273709111297,13.3584969699778,0.033
-4.30256493290725,13.5950957190983,0.034
-4.40062213504699,13.8253688855057,0.035
-4.49686515849435,14.0491938084556,0.036
-4.59125138535424,14.2664530880997,0.037
-4.68373916571249,14.4770346966917,0.038
-4.77428786529521,14.6808320859277,0.039
-4.8628579138631,14.8777442902567,0.04
-4.94941085424818,15.0676760259925,0.041
-5.03390939193546,15.2505377860612,0.042
-5.11631744508589,15.4262459302137,0.043
-5.19660019489241,15.5947227705358,0.044
-5.27472413615573,15.755896652087,0.045
-5.3506571279618,15.9097020284989,0.046
-5.42436844433893,16.056079532368,0.047
-5.49582882476823,16.1949760402765,0.048
-5.56501052441755,16.3263447322765,0.049
-5.63188736396584,16.4501451456793,0.05
-5.69643477888172,16.5663432229878,0.051
-5.75862986801781,16.6749113538215,0.052
-5.81845144137983,16.775828410679,0.053
-5.87588006692797,16.8690797783945,0.054
-5.93089811626665,16.954657377146,0.055
-5.98348980907765,17.0325596788776,0.056
-6.0336412561513,17.1027917170079,0.057
-6.08134050087008,17.1653650892993,0.058
-6.12657755899966,17.2202979537711,0.059
-6.16934445664272,17.2676150175487,0.06
-6.20963526621254,17.3073475185451,0.061
-6.2474461402848,17.3395331998834,0.062
-6.28277534318811,17.3642162769762,0.063
-6.31562328019632,17.3814473971851,0.064
-6.34599252418884,17.3912835919983,0.065
-6.37388783964836,17.3937882216692,0.066
-6.39931620386924,17.3890309122731,0.067
-6.42228682525427,17.3770874851493,0.068
-6.44281115858201,17.3580398787067,0.069
-6.46090291713196,17.3319760625827,0.07
-6.47657808156053,17.2989899441605,0.071
-6.48985490542636,17.2591812674569,0.072
-6.50075391726985,17.2126555044104,0.073
-6.50929791915858,17.1595237386109,0.074
-6.51551198161685,17.0999025415241,0.075
-6.51942343486505,17.0339138412799,0.076
-6.52106185630224,16.961684784106,0.077
-6.52045905417291,16.8833475885021,0.078
-6.51764904736728,16.7990393922651,0.079
-6.51266804131273,16.7089020924885,0.08
-6.50555439992275,16.6130821786745,0.081
-6.4963486135784,16.5117305591106,0.082
-6.48509326312663,16.4050023806777,0.083
-6.47183297988876,16.2930568422696,0.084
-6.45661440168175,16.17605700202,0.085
-6.43948612486484,16.0541695785438,0.086
-6.42049865243291,15.9275647464172,0.087
-6.39970433818834,15.7964159261312,0.088
-6.37715732703248,15.6608995687701,0.089
-6.35291349142744,15.5211949356758,0.09
-6.3270303640891,15.3774838733748,0.091
-6.29956706698134,15.2299505840563,0.092
-6.27058423669172,15.078781391902,0.093
-6.24014394627792,14.9241645055786,0.094
-6.2083096236841,14.7662897772186,0.095
-6.17514596683538,14.6053484582234,0.096
-6.14071885552794,14.4415329522322,0.097
-6.1050952602413,14.2750365656143,0.098
-6.06834314800804,14.1060532558465,0.099
-6.03053138548471,13.9347773781504,0.1
-5.99172963937623,13.761403430769,0.101
-5.95200827437378,13.5861257992723,0.102
-5.91143824877428,13.4091385002869,0.103
-5.87009100795654,13.2306349250496,0.104
-5.82803837589664,13.0508075831932,0.105
-5.78535244491149,12.8698478471754,0.106
-5.74210546382591,12.6879456977644,0.107
-5.69836972476462,12.5052894710005,0.108
-5.65421744877579,12.3220656070535,0.109
-5.60972067049788,12.1384584013975,0.11
-5.56495112208636,11.9546497587245,0.111
-5.51998011662055,11.7708189500192,0.112
-5.4748784312148,11.5871423732155,0.113
-5.42971619006134,11.4037933178527,0.114
-5.38456274763447,11.2209417341476,0.115
-5.33948657228822,11.038754006893,0.116
-5.29455513048094,10.8573927345916,0.117
-5.24983477186142,10.677016514224,0.118
-5.20539061545155,10.4977797320488,0.119
-5.16128643716069,10.3198323608194,0.12
-5.11758455886587,10.1433197637988,0.121
-5.07434573929151,9.96838250594233,0.122
-5.03162906691966,9.79515617260783,0.123
-4.98949185516053,9.6237711961434,0.124
-4.94798954000944,9.45435269069058,0.125
-4.90717558041345,9.28702029552833,0.126
-4.86710136156678,9.12188802727006,0.127
-4.82781610134976,8.95906414121194,0.128
-4.78936676012113,8.79865100211617,0.129
-4.75179795406787,8.64074496469713,0.13
-4.71515187231097,8.48543626406254,0.131
-4.67946819795869,8.33280891634455,0.132
-4.6447840332923,8.18294062973871,0.133
-4.61113382926153,8.03590272615015,0.134
-4.57854931945898,7.8917600736283,0.135
-4.5470594587349,7.75057102975182,0.136
-4.51669036660421,7.61238739610615,0.137
-4.48746527558916,7.47725438397556,0.138
-4.45940448463102,7.34521059135168,0.139
-4.43252531769444,7.21628799133894,0.14
-4.40684208767796,7.09051193201662,0.141
-4.38236606573328,6.96790114779541,0.142
-4.35910545608544,6.8484677822848,0.143
-4.33706537643452,6.73221742266565,0.144
-4.31624784400839,6.61914914553998,0.145
-4.2966517673245,6.5092555742082,0.146
-4.27827294370642,6.40252294730131,0.147
-4.26110406258971,6.29893119867369,0.148
-4.24513471463888,6.19845404843967,0.149
-4.23035140668551,6.10105910501496,0.15
-4.2167375824851,6.00670797800205,0.151
-4.20427364927807,5.91535640173689,0.152
-4.19293701012796,5.82695436929254,0.153
-4.18270210199752,5.74144627671416,0.154
-4.17354043951123,5.65877107723888,0.155
-4.16542066434052,5.57886244523334,0.156
-4.15830860013589,5.50164894956166,0.157
-4.15216731291814,5.42705423607691,0.158
-4.14695717682909,5.35499721890987,0.159
-4.14263594513075,5.28539228021053,0.16
-4.13915882633008,5.21814947797946,0.161
-4.13647856529566,5.15317476160926,0.162
-4.13454552922157,5.09037019473922,0.163
-4.13330779828312,5.02963418501085,0.164
-4.13271126081877,4.97086172029643,0.165
-4.1326997128628,4.91394461095868,0.166
-4.13321496184332,4.85877173768615,0.167
-4.13419693425162,4.8052293044361,0.168
-4.13558378707927,4.75320109600527,0.169
-4.13731202281199,4.70256873973805,0.17
-4.13931660776047,4.65321197087174,0.171
-4.14153109350166,4.60500890100988,0.172
-4.14388774119665,4.55783628920702,0.173
-4.14631764854506,4.51156981514112,0.174
-4.14875087913004,4.46608435384487,0.175
-4.15111659390224,4.42125425146177,0.176
-4.1533431845469,4.37695360149012,0.177
-4.1553584084735,4.33305652097511,0.178
-4.15708952516392,4.28943742610835,0.179
-4.15846343361207,4.2459713066937,0.18
-4.15940681058528,4.20253399893957,0.181
-4.15984624943614,4.15900245603981,0.182
-4.15970839919178,4.11525501600843,0.183
-4.15892010364741,4.07117166623823,0.184
-4.15740854019035,4.02663430425831,0.185
-4.15510135808183,3.98152699417265,0.186
-4.15192681592459,3.93573621826918,0.187
-4.14781391804617,3.88915112329794,0.188
-4.14269254953032,3.8416637609267,0.189
-4.1364936096316,3.79316932189323,0.19
-4.12914914331205,3.74356636338567,0.191
-4.12059247064263,3.69275702919537,0.192
-4.11075831381715,3.64064726220038,0.193
-4.09958292153134,3.58714700875316,0.194
-4.08700419048562,3.53217041456149,0.195
-4.07296178377652,3.47563601166899,0.196
-4.05739724594836,3.41746689615864,0.197
-4.0402541144842,3.3575908962219,0.198
-4.02147802752302,3.29594073025481,0.199
-4.00101682759799,3.23245415466304,0.2
-3.97882066119992,3.16707410107802,0.201
-3.95484207397865,3.09974880270855,0.202
-3.92903610140483,3.03043190957361,0.203
-3.90136035472475,2.95908259238537,0.204
-3.87177510205057,2.88566563487429,0.205
-3.84024334443942,2.81015151437208,0.206
-3.80673088682546,2.7325164704923,0.207
-3.77120640368026,2.65274256177296,0.208
-3.73364149928827,2.57081771017051,0.209
-3.69401076253579,2.48673573331942,0.21
-3.65229181612374,2.40049636449718,0.211
-3.60846536012652,2.31210526025998,0.212
-3.5625152098314,2.22157399574009,0.213
-3.51442832780514,2.12892004762136,0.214
-3.46419485014698,2.03416676483547,0.215
-3.41180810689936,1.93734332704679,0.216
-3.35726463660038,1.83848469101936,0.217
-3.30056419497428,1.73763152498522,0.218
-3.24170975776859,1.63483013115789,0.219
-3.18070751775908,1.53013235656032,0.22
-3.11756687595575,1.42359549236077,0.221
-3.05230042705512,1.31528216193437,0.222
-2.98492393919637,1.20526019789211,0.223
-2.91545632809028,1.09360250834178,0.224
-2.84391962560176,0.98038693266864,0.225
-2.77033894287805,0.865696087145253,0.226
-2.69474242812572,0.749617200701821,0.227
-2.61716121915052,0.632241941208818,0.228
-2.53762939078452,0.513666232644021,0.229
-2.45618389733537,0.393990063535215,0.23
-2.37286451020202,0.273317287088355,0.231
-2.28771375081112,0.151755413428575,0.232
-2.20077681903708,0.0294153943981241,0.233
-2.11210151727753,-0.0935885986289124,0.234
-2.02173817036417,-0.21713940344047,0.235
-1.92973954149684,-0.341117101700514,0.236
-1.83616074439574,-0.46539925918204,0.237
-1.74105915187392,-0.589861171006248,0.238
-1.64449430103811,-0.714376111364459,0.239
-1.54652779533209,-0.838815587189957,0.24
-1.44722320364207,-0.963049595238536,0.241
-1.34664595668809,-1.08694688202948,0.242
-1.24486324093023,-1.21037520609266,0.243
-1.14194389022144,-1.33320160196264,0.244
-1.03795827544268,-1.45529264535726,0.245
-0.932978192358054,-1.57651471897553,0.246
-0.827076747930075,-1.69673427834881,0.247
-0.720328245336549,-1.81581811717911,0.248
-0.612808067931422,-1.93363363159984,0.249
-0.504592562392437,-2.05004908279661,0.25
-0.395758921298183,-2.16493385742975,0.251
-0.2863850653764,-2.27815872530487,0.252
-0.176549525664096,-2.38959609374407,0.253
-0.0663313258182217,-2.49912025811785,0.254
0.0441901351867304,-2.60660764800603,0.255
0.154935199740738,-2.71193706846579,0.256
0.265824067429804,-2.81498993589598,0.257
0.376776909790913,-2.91565050799818,0.258
0.487713983768663,-3.01380610734864,0.259
0.598555743656705,-3.10934733810878,0.26
0.709222951312529,-3.20216829541741,0.261
0.819636784439895,-3.29216676702346,0.262
0.929718942739445,-3.37924442673564,0.263
1.03939175173472,-3.46330701928278,0.264
1.14857826408783,-3.54426453619795,0.265
1.2572023582264,-3.62203138235892,0.266
1.36518883411134,-3.69652653283808,0.267
1.47246350598291,-3.76767367973608,0.268
1.57895329193115,-3.83540136869569,0.269
1.68458630014539,-3.89964312481473,0.27
1.78929191170656,-3.9603375677003,0.271
1.89300085979524,-4.01742851543029,0.272
1.9956453051979,-4.07086507721264,0.273
2.09715890800341,-4.12060173455732,0.274
2.19747689539173,-4.16659841080137,0.275
2.29653612542668,-4.20882052885291,0.276
2.39427514677475,-4.24723905704573,0.277
2.49063425428223,-4.2818305430222,0.278
2.58555554035307,-4.31257713558841,0.279
2.67898294208032,-4.33946659451208,0.28
2.77086228409423,-4.36249228825981,0.281
2.86114131710057,-4.38165317969694,0.282
2.94976975209297,-4.39695379979978,0.283
3.03669929023328,-4.40840420945592,0.284
3.12188364840424,-4.41601994945467,0.285
3.20527858044891,-4.41982197879563,0.286
3.28684189412091,-4.41983660146872,0.287
3.36653346377987,-4.41609538188471,0.288
3.44431523887565,-4.40863504915956,0.289
3.5201512482746,-4.39749739048106,0.29
3.59400760049037,-4.38272913380945,0.291
3.66585247989058,-4.36438182018771,0.292
3.73565613895969,-4.3425116659595,0.293
3.8033908867067,-4.31717941521517,0.294
3.86903107331445,-4.28845018280758,0.295
3.93255307113535,-4.25639328829996,0.296
3.99393525214582,-4.2210820812283,0.297
4.05315796197872,-4.18259375807937,0.298
4.11020349066044,-4.14100917140384,0.299
4.16505604018502,-4.09641263150121,0.3
4.21770168906448,-4.04889170112945,0.301
4.26812835399987,-3.99853698370746,0.302
4.31632574882273,-3.94544190549289,0.303
4.36228534086187,-3.88970249223081,0.304
4.40600030489453,-3.83141714078093,0.305
4.44746547484513,-3.77068638624212,0.306
4.48667729339828,-3.70761266510249,0.307
4.52363375969593,-3.64230007495241,0.308
4.5583343752913,-3.57485413130483,0.309
4.59078008853411,-3.50538152207394,0.31
4.62097323756389,-3.4339898602681,0.311
4.64891749208898,-3.36078743545669,0.312
4.67461779413001,-3.28588296457344,0.313
4.698080297907,-3.20938534261984,0.314
4.71931230904899,-3.13140339383254,0.315
4.73832222330482,-3.05204562387748,0.316
4.75511946493268,-2.97141997363107,0.317
4.76971442494462,-2.8896335751052,0.318
4.78211839938046,-2.80679251006799,0.319
4.79234352778334,-2.72300157190612,0.32
4.80040273204634,-2.63836403126733,0.321
4.80630965579683,-2.55298140601324,0.322
4.8100786044815,-2.46695323600294,0.323
4.81172448631132,-2.38037686321717,0.324
4.81126275422154,-2.29334721772078,0.325
4.80870934899712,-2.2059566099483,0.326
4.80408064370925,-2.11829452978339,0.327
4.79739338960328,-2.03044745288764,0.328
4.78866466357292,-1.94249865471816,0.329
4.77791181734965,-1.85452803265631,0.33
4.76515242853023,-1.76661193665167,0.331
4.75040425355877,-1.6788230087667,0.332
4.73368518277321,-1.59123003198733,0.333
4.7150131976192,-1.5038977886444,0.334
4.69440633012727,-1.41688692876929,0.335
4.67188262474187,-1.33025384868504,0.336
4.64746010258366,-1.24405058011132,0.337
4.62115672821843,-1.15832469003832,0.338
4.59299037899874,-1.07311919160051,0.339
4.56297881703607,-0.988472466156743,0.34
4.53113966385394,-0.904418196758128,0.341
4.49749037776369,-0.820985313159751,0.342
4.4620482339973,-0.738197948506426,0.343
4.42483030762291,-0.656075407796697,0.344
4.38585345926105,-0.574632148202921,0.345
4.34513432361118,-0.493877771298766,0.346
4.3026893007902,-0.413817027218812,0.347
4.25853455047647,-0.334449830748231,0.348
4.21268598884507,-0.255771289313803,0.349
4.16515928827187,-0.177771742820822,0.35
4.11596987977643,-0.100436815253896,0.351
4.06513295816594,-0.0237474779332206,0.352
4.01266348983498,0.052319875708289,0.353
3.95857622316839,0.127793343987537,0.354
3.9028857014874,0.202705419659552,0.355
3.84560627847213,0.277092881642847,0.356
3.78675213598682,0.350996676017874,0.357
3.72633730422745,0.424461786558824,0.358
3.66437568410505,0.497537095082716,0.359
3.60088107177211,0.570275231922815,0.36
3.5358671851933,0.642732416855784,0.361
3.46934769265639,0.714968290833732,0.362
3.40133624311396,0.787045738893235,0.363
3.33184649824127,0.859030704633583,0.364
3.26089216609134,0.930991996675773,0.365
3.18848703622355,1.00300108753222,0.366
3.11464501617841,1.07513190533457,0.367
3.03938016916699,1.14746061888364,0.368
2.96270675284067,1.22006541650081,0.369
2.88463925900339,1.29302627917483,0.37
2.80519245412619,1.3664247485113,0.371
2.72438142052154,1.44034369000449,0.372
2.64222159803281,1.51486705216195,0.373
2.55872882609289,1.59007962202296,0.374
2.47391938600469,1.66606677762003,0.375
2.38781004329542,1.74291423794079,0.376
2.30041808999599,1.82070781095367,0.377
2.21176138669713,1.89953314026605,0.378
2.12185840423355,1.9794754509876,0.379
2.03072826484871,2.0606192953739,0.38
1.93839078269339,2.14304829882708,0.381
1.84486650351276,2.22684490683031,0.382
1.75017674337834,2.31209013339165,0.383
1.65434362632353,2.39886331157068,0.384
1.55739012074345,2.48724184665743,0.385
1.45934007442299,2.57730097256819,0.386
1.36021824805979,2.66911351201695,0.387
1.26005034715256,2.76274964101335,0.388
1.15886305212862,2.85827665822981,0.389
1.05668404658886,2.95575875977053,0.39
0.95354204355256,3.05525681986397,0.391
0.849466809589013,3.15682817798859,0.392
0.744489186728183,3.2605264329279,0.393
0.63864111204739,3.36640124423698,0.394
0.531955634836753,3.47449814158678,0.395
0.424466931251655,3.58485834243626,0.396
0.316210316366418,3.69751857846484,0.397
0.207222253549534,3.81251093117925,0.398
0.097540361087043,3.92986267708934,0.399
-0.012796584012808,4.04959614282724,0.4
-0.123748645093826,4.17172857056326,0.401
-0.235274727858461,4.29627199404964,0.402
-0.347332585353146,4.42323312560112,0.403
-0.459878825971721,4.55261325429738,0.404
-0.572868924509112,4.68440815566886,0.405
-0.686257236290118,4.81860801310255,0.406
-0.7999970143908,4.95519735117929,0.407
-0.914040429962584,5.09415498112855,0.408
-1.02833859566166,5.23545395856037,0.409
-1.1428415921788,5.37906155360789,0.41
-1.25749849785728,5.52493923358691,0.411
-1.37225742137889,5.67304265825215,0.412
-1.48706553749082,5.82332168770219,0.413
-1.60186912573853,5.97572040295817,0.414
-1.71661361216245,6.13017713921344,0.415
-1.83124361390899,6.286624531724,0.416
-1.94570298669916,6.44498957428216,0.417
-2.05993487509095,6.60519369018827,0.418
-2.1738817654645,6.76715281560826,0.419
-2.28748554165241,6.93077749517779,0.42
-2.40068754313072,7.09597298968671,0.421
-2.51342862567936,7.26263939565167,0.422
-2.62564922441477,7.43067177655804,0.423
-2.73728941909086,7.59996030552728,0.424
-2.8482890015589,7.77039041914045,0.425
-2.95858754527048,7.94184298212413,0.426
-3.06812447670298,8.11419446258115,0.427
-3.17683914858076,8.28731711742523,0.428
-3.28467091476102,8.46107918765601,0.429
-3.39155920664787,8.6353451030893,0.43
-3.49744361099397,8.80997569613632,0.431
-3.60226394894468,8.98482842420569,0.432
-3.70596035617585,9.1597576002824,0.433
-3.80847336397248,9.33461463122041,0.434
-3.90974398109247,9.50924826326732,0.435
-4.00971377625639,9.68350483432412,0.436
-4.10832496110155,9.85722853242742,0.437
-4.20552047343644,10.0302616599274,0.438
-4.30124406062935,10.2024449028222,0.439
-4.39544036296346,10.3736176046968,0.44
-4.48805499678931,10.5436180447048,0.441
-4.57903463730445,10.7122837190219,0.442
-4.66832710078968,10.8794516251897,0.443
-4.75588142613078,11.044958548766,0.444
-4.84164795545473,11.208641351686,0.445
-4.92557841371012,11.3703372617401,0.446
-5.00762598702179,11.5298841625672,0.447
-5.08774539965133,11.6871208835618,0.448
-5.16589298939637,11.8418874890926,0.449
-5.24202678126339,11.9940255664309,0.45
-5.3161065592512,12.1433785117899,0.451
-5.38809393608468,12.2897918138768,0.452
-5.45795242074126,12.4331133343692,0.453
-5.52564748361601,12.573193584726,0.454
-5.59114661917464,12.7098859987586,0.455
-5.65441940594782,12.8430472003886,0.456
-5.71543756372422,12.972537266034,0.457
-5.77417500780452,13.0982199810727,0.458
-5.83060790018334,13.2199630898471,0.459
-5.88471469753118,13.3376385386843,0.46
-5.93647619585401,13.4511227114228,0.461
-5.98587557171396,13.560296656951,0.462
-6.03289841990022,13.665046308279,0.463
-6.07753278744617,13.7652626926842,0.464
-6.11976920389439,13.8608421324888,0.465
-6.15960070771891,13.9516864360461,0.466
-6.19702286882024,14.0377030785351,0.467
-6.23203380701638,14.1188053721817,0.468
-6.26463420646023,14.1949126255493,0.469
-6.29482732592129,14.265950291563,0.47
-6.32261900487752,14.3318501039552,0.471
-6.34801766537082,14.3925502018465,0.472
-6.37103430958781,14.447995242198,0.473
-6.39168251313568,14.4981364998999,0.474
-6.40997841399108,14.5429319552837,0.475
-6.42594069710838,14.5823463688759,0.476
-6.43959057468219,14.6163513432337,0.477
-6.45095176206713,14.6449253717344,0.478
-6.46005044936682,14.668053874215,0.479
-6.46691526871224,14.6857292193876,0.48
-6.47157725725826,14.6979507339835,0.481
-6.47406981593579,14.7047246986075,0.482
-6.47442866400527,14.7060643303121,0.483
-6.47269178946588,14.7019897519274,0.484
-6.4688993953832,14.6925279482142,0.485
-6.46309384220621,14.6777127089313,0.486
-6.45531958615305,14.6575845589398,0.487
-6.44562311375271,14.6321906754908,0.488
