Drag (N),Lift (N),Time (s)
-2.358,2.75,0
-2.37459697045313,2.91902556904539,0.001
-2.39124548680007,3.08798958275555,0.002
-2.40799690324704,3.25683039129503,0.003
-2.42490219118288,3.425486156431,0.004
-2.44201174916373,3.59389475884005,0.005
-2.45937521456591,3.76199370721473,0.006
-2.47704127745709,3.92972004975852,0.007
-2.49505749723038,4.09701028864836,0.008
-2.51347012253954,4.26380029803175,0.009
-2.53232391506554,4.43002524611155,0.01
-2.55166197763564,4.59561952185469,0.011
-2.57152558720559,4.76051666684273,0.012
-2.59195403320401,4.9246493127612,0.013
-2.61298446172472,5.08794912500173,0.014
-2.63465172603885,5.25034675282659,0.015
-2.65698824388281,5.41177178651783,0.016
-2.68002386196158,5.57215272190551,0.017
-2.7037857280887,5.73141693263853,0.018
-2.72829817136544,5.88949065053053,0.019
-2.75358259078103,6.04629895427931,0.02
-2.77965735259448,6.20176576682419,0.021
-2.80653769683609,6.35581386156958,0.022
-2.83423565324272,6.50836487766595,0.023
-2.86275996691664,6.6593393445017,0.024
-2.8921160339717,6.80865671552042,0.025
-2.92230584740389,6.95623541143859,0.026
-2.9533279533961,7.10199287289871,0.027
-2.9851774182379,7.24584562255237,0.028
-3.01784580601221,7.38770933652704,0.029
-3.05132116717061,7.5274989251896,0.03
-3.08558803808819,7.66512862307856,0.031
-3.12062745165741,7.80051208783676,0.032
-3.15641695894884,7.93356250793563,0.033
-3.19293066193377,8.06419271894278,0.034
-3.23013925723111,8.19231532804509,0.035
-3.26801009080794,8.31784284650183,0.036
-3.30650722352948,8.44068782966442,0.037
-3.34559150742081,8.56076302416372,0.038
-3.38522067246937,8.67798152183035,0.039
-3.42534942376324,8.79225691988065,0.04
-3.46592954872761,8.90350348686787,0.041
-3.50691003418799,9.01163633386912,0.042
-3.5482371929567,9.11657159034886,0.043
-3.58985479960655,9.21822658411399,0.044
-3.63170423506417,9.31652002475061,0.045
-3.6737246396245,9.41137218991008,0.046
-3.71585307395799,9.50270511379225,0.047
-3.75802468765272,9.59044277715542,0.048
-3.80017289480568,9.67451129816765,0.049
-3.84222955615064,9.754839123401,0.05
-3.88412516718417,9.83135721826017,0.051
-3.92578905172732,9.90399925612939,0.052
-3.96714956033774,9.97270180551651,0.053
-4.00813427296566,10.0374045144713,0.054
-4.04867020522826,10.0980502915555,0.055
-4.08868401765873,10.154585482646,0.056
-4.12810222727124,10.2069600428578,0.057
-4.16685142076913,10.255127702885,0.058
-4.20485846871193,10.2990461290661,0.059
-4.24205073994788,10.3386770764999,0.06
-4.27835631561102,10.37398653455,0.061
-4.3137042019774,10.4049448641012,0.062
-4.34802454147245,10.4315269259512,0.063
-4.38124882112149,10.4537121997475,0.064
-4.4133100777379,10.4714848929069,0.065
-4.44414309914837,10.4848340389864,0.066
-4.47368462076219,10.4937535850066,0.067
-4.5018735168014,10.4982424672641,0.068
-4.52865098552159,10.4983046752051,0.069
-4.55396072776777,10.4939493029756,0.07
-4.57774911822768,10.4851905882998,0.071
-4.59996536876501,10.472047938384,0.072
-4.62056168323747,10.454545942588,0.073
-4.63949340322985,10.4327143716494,0.074
-4.65671914415936,10.4065881632963,0.075
-4.67220092124041,10.3762073941293,0.076
-4.6859042648276,10.3416172377035,0.077
-4.6977983246899,10.3028679087931,0.078
-4.70785596280476,10.2600145938663,0.079
-4.7160538342989,10.2131173678556,0.08
-4.72237245620207,10.1622410973512,0.081
-4.72679626372146,10.1074553304044,0.082
-4.72931365378718,10.0488341731695,0.083
-4.72991701566335,9.98645615367015,0.084
-4.72860274846489,9.92040407301916,0.085
-4.72537126546611,9.85076484447314,0.086
-4.72022698513505,9.77762932074792,0.087
-4.7131783088748,9.7010921100678,0.088
-4.70423758550209,9.62125138146567,0.089
-4.69342106254188,9.53820865989355,0.09
-4.68074882446571,9.4520686117444,0.091
-4.66624471805043,9.36293882142452,0.092
-4.64993626508262,9.27092955965273,0.093
-4.63185456268191,9.17615354419679,0.094
-4.61203417156426,9.07872569378925,0.095
-4.59051299261264,8.97876287599431,0.096
-4.56733213216823,8.8763836498233,0.097
-4.54253575649964,8.77170800392047,0.098
-4.51617093595074,8.66485709116041,0.099
-4.48828747930854,8.55595296051679,0.1
-4.45893775897267,8.44511828707528,0.101
-4.42817652754508,8.33247610107521,0.102
-4.39606072649423,8.21814951687138,0.103
-4.36264928758093,8.10226146271216,0.104
-4.32800292776376,7.98493441223027,0.105
-4.29218393832995,7.86629011854005,0.106
-4.25525596902272,7.74644935182892,0.107
-4.21728380795863,7.62553164132088,0.108
-4.17833315814786,7.50365502247695,0.109
-4.13847041144642,7.38093579028078,0.11
-4.09776242078277,7.25748825943814,0.111
-4.05627627151078,7.13342453229538,0.112
-4.0140790527479,7.00885427525616,0.113
-3.97123762956011,6.88388450444587,0.114
-3.92781841685559,6.75861938134089,0.115
-3.88388715584444,6.63316001904461,0.116
-3.83950869391585,6.5076042998536,0.117
-3.79474676877229,6.38204670471716,0.118
-3.74966379764734,6.25657815514988,0.119
-3.70432067241576,6.13128586811138,0.12
-3.65877656138407,6.00625322432008,0.121
-3.61308871852574,5.88155965041796,0.122
-3.56731230089807,5.75728051535228,0.123
-3.5215001949476,5.63348704128709,0.124
-3.47570285237766,5.5102462293036,0.125
-3.42996813621551,5.38762080009289,0.126
-3.38434117767799,5.26566914978839,0.127
-3.33886424439275,5.14444532102886,0.128
-3.29357662048887,5.02399898928515,0.129
-3.24851449902415,4.90437546442665,0.13
-3.20371088716849,4.78561570744604,0.131
-3.15919552451264,4.66775636220345,0.132
-3.11499481481984,4.55082980199485,0.133
-3.07113177148487,4.43486419069325,0.134
-3.0276259769103,4.31988355815647,0.135
-2.98449355595444,4.20590788954133,0.136
-2.9417471635491,4.09295322811183,0.137
-2.89939598652823,3.98103179107798,0.138
-2.85744575965146,3.870152097953,0.139
-2.81589879574907,3.7603191108698,0.14
-2.77475402985751,3.65153438625283,0.141
-2.73400707715804,3.54379623719914,0.142
-2.69365030447437,3.43709990588266,0.143
-2.65367291503,3.33143774525912,0.144
-2.61406104611134,3.22679940931427,0.145
-2.57479787922995,3.12317205106793,0.146
-2.53586376232507,3.02054052751756,0.147
-2.49723634349861,2.91888761068126,0.148
-2.45889071572607,2.81819420387848,0.149
-2.42079957194183,2.71843956236892,0.15
-2.38293336985371,2.61960151745616,0.151
-2.34526050580071,2.52165670315181,0.152
-2.30774749693028,2.42458078448877,0.153
-2.27035917093606,2.32834868656925,0.154
-2.23305886256494,2.23293482343321,0.155
-2.19580861607365,2.138313325837,0.156
-2.15856939278945,2.04445826703966,0.157
-2.12130128290746,1.95134388570535,0.158
-2.08396372063857,1.85894480504564,0.159
-2.04651570180723,1.76723624734297,0.16
-2.00891600298705,1.67619424301911,0.161
-1.97112340125489,1.58579583343651,0.162
-1.93309689364049,1.49601926664956,0.163
-1.89479591534913,1.40684418535326,0.164
-1.85618055583874,1.31825180631146,0.165
-1.81721177184097,1.23022509058365,0.166
-1.77785159642759,1.14274890390897,0.167
-1.73806334323916,1.05581016664818,0.168
-1.69781180501199,0.969397992728542,0.169
-1.65706344556291,0.883503817083408,0.17
-1.61578658441732,0.798121511126179,0.171
-1.57395157329648,0.713247485848679,0.172
-1.53153096371313,0.62888078218536,0.173
-1.48849966496115,0.545023148337522,0.174
-1.44483509182483,0.461679103805525,0.175
-1.40051730137565,0.378855989931603,0.176
-1.35552911826992,0.296564006811022,0.177
-1.30985624800878,0.21481623648485,0.178
-1.26348737767176,0.133628652383269,0.179
-1.21641426368833,0.053020115043826,0.18
-1.1686318062655,-0.0269876458157855,0.181
-1.12013811014616,-0.106370062736244,0.182
-1.07093453143029,-0.185099775278477,0.183
-1.02102571025013,-0.263146687868167,0.184
-0.970419589149977,-0.340478040430657,0.185
-0.919127417082552,-0.41705849147393,0.186
-0.867163738994298,-0.492850213228903,0.187
-0.814546371033977,-0.56781299840969,0.188
-0.761296361479994,-0.641904378111922,0.189
-0.707437937543156,-0.715079750324853,0.19
-0.652998438262162,-0.787292518492951,0.191
-0.598008233768916,-0.858494239525263,0.192
-0.542500631259605,-0.928634780615968,0.193
-0.486511768064948,-0.997662484207548,0.194
-0.430080492268989,-1.06552434039892,0.195
-0.37324823138003,-1.13216616607474,0.196
-0.316058849609428,-1.19753279000922,0.197
-0.258558494363955,-1.26156824317785,0.198
-0.200795432604882,-1.32421595349406,0.199
-0.142819877771742,-1.38541894417456,0.2
-0.0846838080107036,-1.44512003492709,0.201
-0.0264407764863376,-1.50326204514806,0.202
0.031854285408747,-1.559787998314,0.203
0.0901452710996742,-1.61464132675121,0.204
0.148375107255008,-1.66776607597153,0.205
0.206485966691877,-1.71910710776855,0.206
0.26441948483871,-1.76861030127925,0.207
0.322116978816431,-1.81622275122859,0.208
0.379519668185535,-1.86189296259154,0.209
0.436568896397146,-1.90557104092574,0.21
0.49320635198092,-1.94720887765084,0.211
0.549374288501564,-1.98676032957487,0.212
0.60501574231879,-2.02418139199637,0.213
0.660074747192796,-2.05943036474068,0.214
0.714496544788701,-2.09246801052158,0.215
0.768227790148888,-2.12325770505429,0.216
0.821216751221731,-2.15176557838249,0.217
0.873413501558773,-2.17796064692101,0.218
0.92477010531982,-2.20181493575602,0.219
0.975240793756731,-2.22330359078659,0.22
1.02478213238158,-2.24240498033478,0.221
1.07335317806341,-2.25910078589573,0.222
1.12091562533953,-2.27337608174467,0.223
1.1674339412728,-2.28521940316353,0.224
1.21287548823389,-2.29462280309685,0.225
1.25721063403918,-2.30158189709308,0.226
1.30041284892817,-2.30609589643483,0.227
1.34245878892049,-2.30816762940819,0.228
1.38332836515089,-2.30780355070811,0.229
1.4230047988408,-2.30501373902292,0.23
1.4614746616269,-2.29981188288659,0.231
1.49872790103056,-2.29221525493183,0.232
1.53475785091642,-2.28224467472097,0.233
1.56956122685388,-2.26992446037367,0.234
1.60313810636119,-2.25528236925155,0.235
1.63549189407831,-2.23834952799936,0.236
1.66662927198082,-2.21916035227997,0.237
1.69656013481356,-2.19775245657609,0.238
1.72529751098812,-2.17416655446605,0.239
1.7528574692532,-2.14844634981197,0.24
1.77925901151026,-2.12063841932904,0.241
1.80452395220948,-2.09079208703114,0.242
1.82867678482139,-2.05895929107323,0.243
1.85174453593836,-2.02519444353321,0.244
1.8737566076165,-1.98955428369543,0.245
1.8947446086225,-1.95209772541564,0.246
1.91474217530141,-1.91288569916105,0.247
1.9337847828294,-1.87198098933158,0.248
1.95190954766105,-1.82944806747685,0.249
1.96915502202234,-1.78535292203038,0.25
1.98556098133869,-1.7397628851857,0.251
2.00116820552211,-1.6927464575404,0.252
2.01601825507173,-1.64437313113222,0.253
2.03015324296881,-1.59471321148729,0.254
2.04361560336931,-1.54383763929359,0.255
2.05644785811514,-1.49181781230365,0.256
2.06869238209877,-1.43872540805865,0.257
2.08039116852477,-1.38463220801224,0.258
2.09158559511643,-1.32960992361613,0.259
2.1023161923154,-1.27373002491133,0.26
2.11262241451745,-1.21706357214855,0.261
2.1225424153783,-1.1596810509391,0.262
2.13211282820924,-1.10165221141402,0.263
2.14136855246395,-1.04304591184351,0.264
2.15034254729472,-0.983929967141926,0.265
2.15906563312929,-0.924371002655545,0.266
2.16756630218716,-0.864434313600873,0.267
2.17587053881911,-0.804183730491122,0.268
2.18400165051317,-0.743681490857349,0.269
2.19198011036694,-0.68298811753905,0.27
2.19982341177846,-0.622162303786772,0.271
2.20754593605693,-0.561260805386818,0.272
2.21515883360067,-0.500338339985399,0.273
2.22266991923188,-0.439447493756948,0.274
2.23008358221836,-0.378638635528785,0.275
2.23740071144928,-0.317959838442165,0.276
2.24461863616739,-0.257456809198054,0.277
2.2517310825934,-0.19717282490489,0.278
2.25872814670923,-0.137148677515354,0.279
2.26559628339753,-0.0774226258097608,0.28
2.27231831206327,-0.0180303548554089,0.281
2.27887343879175,0.0409950571559413,0.282
2.28523729502503,0.0996231648161331,0.283
2.29138199266647,0.157826174302342,0.284
2.29727619545077,0.215578955243541,0.285
2.30288520634549,0.272859045844128,0.286
2.30817107067894,0.329646651476847,0.287
2.31309269462004,0.385924636975047,0.288
2.31760597856745,0.441678512870508,0.289
2.3216639649389,0.496896415837296,0.29
2.3252169997875,0.551569083614573,0.291
2.32821290761023,0.605689824691707,0.292
2.33059717865415,0.659254483047589,0.293
2.33231316797029,0.712261398242684,0.294
2.33330230541198,0.764711361166962,0.295
2.33350431572477,0.81660756574963,0.296
2.33285744782988,0.867955556937423,0.297
2.33129871236057,0.91876317524718,0.298
2.32876412647385,0.969040498195674,0.299
2.32518896492605,1.018799778905,0.3
2.32050801637204,1.06805538217572,0.301
2.31465584382363,1.11682371831188,0.302
2.30756704818289,1.16512317497302,0.303
2.29917653375152,1.21297404731699,0.304
2.28941977460746,1.26039846668571,0.305
2.27823308073504,1.30742032807253,0.306
2.26555386279477,1.35406521659518,0.307
2.25132089442439,1.40036033318333,0.308
2.23547457097225,1.44633441967306,0.309
2.21795716357948,1.49201768348388,0.31
2.19871306754675,1.53744172203611,0.311
2.17768904394643,1.58263944704862,0.312
2.1548344534699,1.62764500883838,0.313
2.13010148153359,1.6724937207249,0.314
2.10344535370547,1.71722198362391,0.315
2.07482454055617,1.76186721089639,0.316
2.04420095108521,1.80646775350069,0.317
2.01154011392281,1.8510628254776,0.318
1.97681134556194,1.89569242978115,0.319
1.93998790493185,1.94039728445097,0.32
1.90104713368462,1.98521874910628,0.321
1.85997058162945,2.03019875172653,0.322
1.81674411681408,2.07537971566963,0.323
1.77135801982111,2.12080448686591,0.324
1.72380706191571,2.16651626111405,0.325
1.67409056675246,2.21255851139508,0.326
1.62221245542133,2.25897491511125,0.327
1.56818127468532,2.3058092811492,0.328
1.51201020833639,2.35310547666075,0.329
1.45371707166958,2.4009073534502,0.33
1.39332428914888,2.4492586738542,0.331
1.33085885541147,2.49820303599904,0.332
1.26635227982893,2.54778379832078,0.333
1.19984051491522,2.59804400323596,0.334
1.1313638689403,2.64902629985427,0.335
1.06096690317607,2.7007728656305,0.336
0.988698314266654,2.7533253268602,0.337
0.914610802277802,2.8067246779324,0.338
0.838760925040406,2.86101119926344,0.339
0.76120893946027,2.9162243738478,0.34
0.682018630519849,2.97240280237552,0.341
0.601257128748002,3.02958411688087,0.342
0.518994716980132,3.08780489290286,0.343
0.435304627273486,3.14710056015618,0.344
0.350262828880553,3.20750531172939,0.345
0.263947808217359,3.26905201184698,0.346
0.176440341792696,3.33177210225265,0.347
0.0878232630890078,3.39569550729214,0.348
-0.0018187755944457,3.46085053779622,0.349
-0.0923995453104671,3.52726379388658,0.35
-0.183831485608976,3.5949600668505,0.351
-0.276025951617099,3.66396224025285,0.352
-0.368893462012815,3.73429119047729,0.353
-0.462343946855262,3.80596568691116,0.354
-0.556286994244221,3.87900229201159,0.355
-0.650632094795541,3.95341526151229,0.356
-0.745288882938248,4.02921644505224,0.357
-0.840167374062587,4.1064151875285,0.358
-0.935178196576311,4.18501823149522,0.359
-1.03023281795885,4.26502962095002,0.36
-1.12524376393945,4.34645060686653,0.361
-1.22012482996578,4.42927955484852,0.362
-1.31479128417366,4.51351185529569,0.363
-1.40916006111607,4.59913983648468,0.364
-1.50314994556055,4.68615268098037,0.365
-1.59668174571782,4.77453634580213,0.366
-1.689678455321,4.86427348677758,0.367
-1.78206540403351,4.95534338752171,0.368
-1.87377039572501,5.047721893483,0.369
-1.96472383421703,5.14138135149915,0.37
-2.05485883616451,5.23629055530385,0.371
-2.14411133080452,5.33241469742274,0.372
-2.23242014636952,5.42971532789048,0.373
-2.31972708302917,5.52815032021246,0.374
-2.40597697229114,5.62767384498414,0.375
-2.49111772285796,5.72823635156695,0.376
-2.57510035300268,5.82978455820446,0.377
-2.6578790095911,5.93226145094372,0.378
-2.73941097394206,6.0356062917061,0.379
-2.81965665477955,6.13975463582871,0.38
-2.89857956859075,6.24463835937204,0.381
-2.97614630776232,6.35018569646163,0.382
-3.05232649692315,6.45632128690169,0.383
-3.12709273797486,6.5629662342666,0.384
-3.20042054434172,6.67003817464235,0.385
-3.27228826501829,6.77745135615403,0.386
-3.34267699903718,6.88511672937823,0.387
-3.41157050101894,6.99294204870004,0.388
-3.4789550785025,7.10083198463392,0.389
-3.54481948178669,7.20868824708629,0.39
-3.60915478704179,7.3164097194947,0.391
-3.6719542734735,7.42389260373524,0.392
-3.73321329534198,7.53103057564531,0.393
-3.79292914965321,7.6377149509644,0.394
-3.8511009403511,7.74383486145061,0.395
-3.9077294398449,7.84927744088538,0.396
-3.96281694870841,7.9539280206343,0.397
-4.01636715438468,8.05767033438714,0.398
-4.06838498972298,8.16038673165657,0.399
-4.11887649216344,8.26195839957164,0.4
-4.16784866436889,8.36226559246011,0.401
-4.2153093370838,8.46118786867285,0.402
-4.26126703497642,8.55860433406396,0.403
-4.30573084619205,8.6543938915025,0.404
-4.3487102963147,8.74843549575576,0.405
-4.39021522739862,8.84060841304989,0.406
-4.43025568269352,8.93079248458221,0.407
-4.46884179764586,9.01886839323013,0.408
-4.50598369771399,9.10471793267457,0.409
-4.54169140348888,9.18822427813242,0.41
-4.57597474356237,9.2692722578706,0.411
-4.6088432755342,9.34774862465696,0.412
-4.64030621549593,9.42354232628787,0.413
-4.67037237627557,9.49654477432076,0.414
-4.69905011467125,9.56665011013152,0.415
-4.72634728784563,9.63375546741209,0.416
-4.75227121899606,9.69776123022158,0.417
-4.77682867235822,9.7585712857071,0.418
-4.80002583754352,9.81609327061612,0.419
-4.82186832315438,9.87023881073126,0.42
-4.84236115956484,9.92092375237202,0.421
-4.86150881069919,9.96806838512432,0.422
-4.87931519458737,10.0115976549791,0.423
-4.89578371242369,10.0514413670849,0.424
-4.91091728580485,10.0875343773476,0.425
-4.92471840177521,10.1198167721387,0.426
-4.9371891652608,10.148234035412,0.427
-4.94833135843087,10.1727372025601,0.428
-4.95814650648459,10.1932830003876,0.429
-4.96663594932337,10.2098339726186,0.43
-4.9738009185349,10.2223585904018,0.431
-4.9796426190841,10.2308313473259,0.432
-4.98416231507876,10.2352328385105,0.433
-4.98736141895426,10.2355498233871,0.434
-4.98924158340146,10.2317752718455,0.435
-4.98980479534654,10.2239083934719,0.436
-4.98905347127893,10.2119546496695,0.437
-4.98699055321612,10.1959257485089,0.438
-4.98361960458992,10.1758396222173,0.439
-4.97894490533898,10.1517203872793,0.44
-4.97297154549691,10.1235982871816,0.441
-4.96570551657318,10.0915096179007,0.442
-4.9571538000367,10.0554966362926,0.443
-4.94732445222786,10.015607451607,0.444
-4.93622668504473,9.97189590041367,0.445
-4.92387094177312,9.92442140528534,0.446
-4.91026896745694,9.873248817647,0.447
-4.89543387323631,9.81844824525837,0.448
-4.87938019411432,9.76009486485477,0.449
-4.86212393965068,9.6982687205283,0.45
-4.8436826371197,9.63305450848509,0.451
-4.82407536671281,9.56454134886681,0.452
-4.80332278841029,9.49282254537381,0.453
-4.78144716019395,9.41799533347451,0.454
-4.75847234732112,9.34016061802976,0.455
-4.73442382243094,9.25942270120163,0.456
-4.70932865630555,9.17588900155394,0.457
-4.68321549916171,9.08966976528642,0.458
-4.65611455240231,9.00087777057467,0.459
-4.62805753081101,8.90962802601565,0.46
-4.59907761522821,8.81603746420118,0.461
-4.56920939580058,8.72022463146145,0.462
-4.53848880595078,8.62230937483581,0.463
-4.50695304726722,8.52241252733898,0.464
-4.47464050556631,8.42065559259797,0.465
-4.4415906584314,8.31716042993778,0.466
-4.40784397458184,8.21204894099229,0.467
-4.37344180547474,8.10544275891125,0.468
-4.33842626958733,7.9974629412243,0.469
-4.30284012987282,7.88822966740887,0.47
-4.26672666492363,7.77786194219078,0.471
-4.23012953441505,7.66647730558365,0.472
-4.19309263943898,7.55419155064803,0.473
-4.15565997836964,7.44111844991975,0.474
-4.11787549893401,7.32736949142455,0.475
-4.07978294718552,7.21305362515771,0.476
-4.04142571410297,7.09827702086722,0.477
-4.00284668055595,6.98314283793449,0.478
-3.96408806139359,6.86775100809986,0.479
-3.92519124942543,6.75219803172971,0.48
-3.88619666007113,6.63657678826947,0.481
-3.84714357745974,6.52097636147166,0.482
-3.80807000275937,6.40548187993033,0.483
-3.7690125055141,6.29017437339413,0.484
-3.73000607875745,6.17513064526893,0.485
-3.69108399865941,6.06042316165807,0.486
-3.65227768944921,5.94611995722467,0.487
-3.61361659433575,5.83228455809511,0.488
