Drag (N),Lift (N),Time (s)
-1.118,3.229,0
-1.10962387152819,3.19722384261675,0.001
-1.10126136657009,3.16548548500301,0.002
-1.09292608842501,3.1338226739326,0.003
-1.08463160000892,3.10227305027745,0.004
-1.07639140377615,3.07087409628034,0.005
-1.06821892177688,3.0396630830955,0.006
-1.06012747589481,3.00867701868539,0.007
-1.05213026830917,2.97795259616127,0.008
-1.04424036222416,2.94752614265407,0.009
-1.03647066290835,2.917433568801,0.01
-1.0288338990855,2.88771031893195,0.011
-1.0213426047169,2.85839132203804,0.012
-1.01400910121457,2.82951094360315,0.013
-1.00684548012283,2.80110293837725,0.014
-0.999863586304402,2.77320040416814,0.015
-0.993075001665854,2.74583573672633,0.016
-0.986491029455019,2.71904058579483,0.017
-0.980122679161657,2.69284581239363,0.018
-0.973980652050422,2.66728144740555,0.019
-0.968075327353358,2.64237665152738,0.02
-0.962416749146989,2.61815967664738,0.021
-0.957014613936952,2.59465782870695,0.022
-0.9518782589709,2.57189743210105,0.023
-0.947016651298102,2.54990379566878,0.024
-0.942438377591853,2.52870118032197,0.025
-0.938151634748423,2.508312768356,0.026
-0.934164221273854,2.48876063448382,0.027
-0.930483529467514,2.47006571863002,0.028
-0.927116538408789,2.45224780051841,0.029
-0.924069807750908,2.43532547608266,0.03
-0.921349472323361,2.41931613572553,0.031
-0.918961237541959,2.4042359444488,0.032
-0.916910375623092,2.3900998238716,0.033
-0.915201722596366,2.37692143615131,0.034
-0.913839676107382,2.36471316981708,0.035
-0.912828194000079,2.35348612752232,0.036
-0.912170793665771,2.34325011571833,0.037
-0.911870552143762,2.33401363624778,0.038
-0.911930106956259,2.3257838798524,0.039
-0.912351657658182,2.31856672158611,0.04
-0.913136968080471,2.31236671812048,0.041
-0.914287369243535,2.30718710692617,0.042
-0.915803762915683,2.30302980731019,0.043
-0.917686625789582,2.29989542328552,0.044
-0.919936014248232,2.29778324824591,0.045
-0.922551569690361,2.29669127141575,0.046
-0.925532524383785,2.29661618604141,0.047
-0.928877707813994,2.29755339928739,0.048
-0.932585553494087,2.29949704379787,0.049
-0.93665410620112,2.30243999088112,0.05
-0.941081029603133,2.30637386527167,0.051
-0.945863614240306,2.31128906142271,0.052
-0.950998785823142,2.31717476127839,0.053
-0.956483113810109,2.32401895347394,0.054
-0.962312820226867,2.33180845390894,0.055
-0.968483788689052,2.34052892763745,0.056
-0.974991573590571,2.35016491201683,0.057
-0.981831409419512,2.36069984105545,0.058
-0.988998220164035,2.37211607089806,0.059
-0.996486628771091,2.38439490638638,0.06
-1.00429096662133,2.39751662863135,0.061
-1.01240528298433,2.41146052353254,0.062
-1.02082335441915,2.42620491117963,0.063
-1.02953869408612,2.44172717607008,0.064
-1.03854456093712,2.45800379807704,0.065
-1.0478339687526,2.4750103841011,0.066
-1.05739969499521,2.49272170033966,0.067
-1.06723428945131,2.51111170510772,0.068
-1.07733008263337,2.53015358214435,0.069
-1.08767919391782,2.54981977433953,0.07
-1.09827353939502,2.57008201781675,0.071
-1.10910483940969,2.59091137630764,0.072
-1.1201646257725,2.61227827575583,0.073
-1.13144424862524,2.63415253908847,0.074
-1.14293488294459,2.65650342109513,0.075
-1.15462753467154,2.67929964335521,0.076
-1.16651304645582,2.70250942915668,0.077
-1.17858210300722,2.72610053835059,0.078
-1.19082523604801,2.75004030208779,0.079
-1.20323282886309,2.77429565738605,0.08
-1.21579512044705,2.79883318147818,0.081
-1.22850220924974,2.82361912589364,0.082
-1.24134405652453,2.84861945022862,0.083
-1.25431048928579,2.87379985556183,0.084
-1.26739120288476,2.89912581747587,0.085
-1.28057576321533,2.92456261864639,0.086
-1.29385360856361,2.95007538096403,0.087
-1.30721405111775,2.97562909715663,0.088
-1.32064627815659,3.00118866188204,0.089
-1.33413935293799,3.02671890226459,0.09
-1.34768221531013,3.05218460785095,0.091
-1.3612636820708,3.07755055996391,0.092
-1.37487244710201,3.10278156043567,0.093
-1.38849708130908,3.12784245970462,0.094
-1.4021260323951,3.15269818426263,0.095
-1.41574762450363,3.17731376344276,0.096
-1.4293500577636,3.20165435553964,0.097
-1.44292140777241,3.22568527325801,0.098
-1.45644962505408,3.24937200848697,0.099
-1.46992253453075,3.27268025640086,0.1
-1.4833278350466,3.29557593888932,0.101
-1.49665309898457,3.31802522732253,0.102
-1.50988577201635,3.3399945646592,0.103
-1.52301317302724,3.36145068690773,0.104
-1.53602249425757,3.38236064395299,0.105
-1.5489008017025,3.40269181976324,0.106
-1.5616350358123,3.42241195199387,0.107
-1.57421201253494,3.44148915100641,0.108
-1.58661842474235,3.45989191832307,0.109
-1.59884084408154,3.47758916453882,0.11
-1.61086572329073,3.49455022671438,0.111
-1.62267939902,3.51074488527496,0.112
-1.63426809519486,3.52614338044093,0.113
-1.64561792695986,3.54071642821743,0.114
-1.65671490523801,3.55443523597117,0.115
-1.66754494194012,3.56727151762336,0.116
-1.67809385585662,3.57919750848812,0.117
-1.68834737926217,3.5901859797868,0.118
-1.69829116526154,3.60021025286819,0.119
-1.70791079590286,3.60924421316542,0.12
-1.71719179108208,3.61726232392007,0.121
-1.72611961825966,3.62423963970379,0.122
-1.73467970300815,3.63015181976765,0.123
-1.74285744040613,3.63497514124881,0.124
-1.75063820729143,3.63868651226344,0.125
-1.75800737538307,3.64126348491421,0.126
-1.76495032527846,3.64268426823963,0.127
-1.77145246132898,3.6429277411313,0.128
-1.77749922739377,3.64197346524425,0.129
-1.78307612346796,3.63980169792383,0.13
-1.78816872317819,3.63639340517124,0.131
-1.79276269213466,3.63173027466825,0.132
-1.79684380712518,3.62579472887968,0.133
-1.8003979761332,3.61856993825043,0.134
-1.80341125915794,3.61003983451193,0.135
-1.80586988981118,3.60018912411054,0.136
-1.80776029766138,3.58900330176849,0.137
-1.80906913129232,3.57646866418524,0.138
-1.80978328203944,3.56257232388532,0.139
-1.80988990836385,3.54730222321558,0.14
-1.80937646082001,3.53064714849276,0.141
-1.80823070756971,3.51259674429933,0.142
-1.8064407603915,3.49314152792308,0.143
-1.80399510113142,3.47227290393319,0.144
-1.80088260853736,3.44998317888267,0.145
-1.79709258541664,3.42626557612444,0.146
-1.79261478605278,3.40111425072538,0.147
-1.78743944381522,3.37452430446009,0.148
-1.7815572988923,3.34649180086307,0.149
-1.77495962607571,3.31701378031547,0.15
-1.76763826252197,3.28608827513967,0.151
-1.75958563541428,3.25371432467235,0.152
-1.75079478944601,3.2198919902839,0.153
-1.74125941404529,3.18462237030959,0.154
-1.73097387025839,3.14790761485513,0.155
-1.71993321720834,3.10975094043708,0.156
-1.70813323804379,3.0701566444158,0.157
-1.69557046529229,3.02913011917669,0.158
-1.68224220553142,2.98667786601297,0.159
-1.66814656329064,2.9428075086614,0.16
-1.65328246409658,2.89752780644023,0.161
-1.63764967657433,2.85084866693676,0.162
-1.62124883351792,2.80278115819046,0.163
-1.60408145184327,2.75333752031567,0.164
-1.58614995133811,2.7025311765068,0.165
-1.5674576721242,2.65037674336756,0.166
-1.54800889074863,2.59689004050458,0.167
-1.52780883482264,2.54208809932509,0.168
-1.50686369612821,2.48598917097737,0.169
-1.48518064211488,2.4286127333723,0.17
-1.46276782571185,2.3699794972238,0.171
-1.43963439338271,2.31011141104598,0.172
-1.41579049135373,2.24903166504469,0.173
-1.39124726994923,2.1867646938414,0.174
-1.36601688597152,2.12333617796792,0.175
-1.3401125030664,2.05877304407083,0.176
-1.31354829001917,1.99310346376572,0.177
-1.28633941693047,1.92635685108188,0.178
-1.25850204922545,1.85856385843995,0.179
-1.2300533394548,1.78975637110587,0.18
-1.20101141685046,1.71996750006675,0.181
-1.17139537460457,1.64923157327571,0.182
-1.14122525484476,1.57758412521508,0.183
-1.11052203128493,1.50506188472959,0.184
-1.07930758953567,1.43170276108363,0.185
-1.04760470506467,1.35754582819949,0.186
-1.01543701880297,1.28263130703618,0.187
-0.982829010399064,1.20700054607177,0.188
-0.94980596912888,1.1306959998551,0.189
-0.916393962475899,1.05376120559667,0.19
-0.882619802401764,0.976240757771545,0.191
-0.848511009334227,0.898180280711343,0.192
-0.814095773905461,0.819626399166107,0.193
-0.779402916480248,0.740626706821008,0.194
-0.744461844519861,0.66122973275703,0.195
-0.709302507833854,0.581484905849176,0.196
-0.67395535177833,0.501442517100208,0.197
-0.638451268465517,0.421153679912554,0.198
-0.602821546055769,0.340670288305675,0.199
-0.567097816209226,0.260044973091049,0.2
-0.531311999780452,0.179331056021742,0.201
-0.495496250845323,0.0985825019385445,0.202
-0.459682899155225,0.0178538689396066,0.203
-0.423904391119342,-0.0627997433943806,0.204
-0.388193229421252,-0.143322747682365,0.205
-0.352581911381415,-0.223659124290239,0.206
-0.317102866182255,-0.303752478695915,0.207
-0.281788391077403,-0.383546100619699,0.208
-0.246670586711392,-0.462983024862367,0.209
-0.211781291680474,-0.542006093788288,0.21
-0.177152016469428,-0.620558021385873,0.211
-0.142813876903092,-0.698581458832677,0.212
-0.108797527254956,-0.776019061487531,0.213
-0.0751330931584489,-0.852813557227269,0.214
-0.0418501044695305,-0.928907816040855,0.215
-0.0089774282318323,-1.0042449207891,0.216
0.0234567981020686,-1.07876823903364,0.217
0.0554252330377239,-1.15242149583437,0.218
0.0869013968371012,-1.22514884741056,0.219
0.117859736589717,-1.29689495555635,0.22
0.148275690397387,-1.36760506269795,0.221
0.17812575051289,-1.4372250674756,0.222
0.207387525272748,-1.50570160073029,0.223
0.236039799664629,-1.57298210177151,0.224
0.264062594370585,-1.63901489479947,0.225
0.291437223128423,-1.70374926535213,0.226
0.318146348255032,-1.76713553664492,0.227
0.344174034177378,-1.82912514566836,0.228
0.369505798819182,-1.88967071890692,0.229
0.394128662694042,-1.94872614754031,0.23
0.418031195558824,-2.00624666198689,0.231
0.441203560484698,-2.06218890564757,0.232
0.463637555207071,-2.11651100770735,0.233
0.485326650619963,-2.1691726548511,0.234
0.50626602628506,-2.2201351617494,0.235
0.526452602830688,-2.26936154017044,0.236
0.545885071121404,-2.31681656657382,0.237
0.564563918084627,-2.36246684804258,0.238
0.582491449086876,-2.40628088641077,0.239
0.599671806758609,-2.44822914044458,0.24
0.616110986173434,-2.48828408593664,0.241
0.631816846294548,-2.52642027357493,0.242
0.646799117608608,-2.56261438444934,0.243
0.661069405874937,-2.59684528306172,0.244
0.674641191925826,-2.62909406770759,0.245
0.687529827461924,-2.65934411810086,0.246
0.699752526795038,-2.68758114011591,0.247
0.711328354499324,-2.71379320752536,0.248
0.722278208940619,-2.73797080061531,0.249
0.732624801662655,-2.76010684156444,0.25
0.742392632618002,-2.78019672647745,0.251
0.751607961240881,-2.7982383539684,0.252
0.760298773368314,-2.81423215019435,0.253
0.768494744025586,-2.82818109024516,0.254
0.776227196101488,-2.84009071580074,0.255
0.783529054948401,-2.84996914897308,0.256
0.790434798951881,-2.85782710225626,0.257
0.796980406123986,-2.86367788451413,0.258
0.803203296784196,-2.86753740294174,0.259
0.809142272401249,-2.86942416094347,0.26
0.814837450678741,-2.86935925187776,0.261
0.820330196976649,-2.86736634862531,0.262
0.825663052170211,-2.86347168894524,0.263
0.830879657056717,-2.85770405659083,0.264
0.83602467342968,-2.85009475816428,0.265
0.841143701948648,-2.84067759569776,0.266
0.846283196941461,-2.82948883495563,0.267
0.851490378284085,-2.81656716946082,0.268
0.856813140511216,-2.80195368025653,0.269
0.862299959318673,-2.7856917914223,0.27
0.86799979562607,-2.76782722137181,0.271
0.873961997375488,-2.748407929968,0.272
0.880236199248693,-2.72748406149922,0.273
0.886872220491971,-2.70510788356846,0.274
0.893919961043776,-2.6813337219559,0.275
0.901429296166146,-2.65621789152309,0.276
0.909449969786173,-2.62981862323552,0.277
0.91803148675872,-2.6021959873879,0.278
0.927223004266116,-2.57341181312498,0.279
0.937073222574505,-2.54352960435834,0.28
0.947630275370209,-2.51261445218731,0.281
0.958941619902462,-2.48073294394,0.282
0.971053927161543,-2.44795306895769,0.283
0.984012972323448,-2.41434412125338,0.284
0.997863525693833,-2.37997659918211,0.285
1.01264924438508,-2.34492210226785,0.286
1.02841256496093,-2.30925322533833,0.287
1.04519459728317,-2.2730434501257,0.288
1.06303501979442,-2.23636703449702,0.289
1.08197197647002,-2.1992988994847,0.29
1.10204197567062,-2.1619145142926,0.291
1.12327979112488,-2.12428977945875,0.292
1.14571836526911,-2.0865009083611,0.293
1.16938871516781,-2.04862430725703,0.294
1.19431984123499,-2.01073645405207,0.295
1.22053863897251,-1.97291377599734,0.296
1.24806981393659,-1.93523252651877,0.297
1.27693580013871,-1.89776866138482,0.298
1.30715668208144,-1.86059771442224,0.299
1.3387501206234,-1.82379467299197,0.3
1.37173128286125,-1.78743385343972,0.301
1.40611277620915,-1.7515887767375,0.302
1.44190458684892,-1.71633204453367,0.303
1.47911402271587,-1.68173521583045,0.304
1.51774566117719,-1.64786868450798,0.305
1.55780130155062,-1.61480155791463,0.306
1.59927992260229,-1.58260153674283,0.307
1.64217764515289,-1.55133479640898,0.308
1.68648769991134,-1.52106587015507,0.309
1.73220040064528,-1.49185753408808,0.31
1.77930312278665,-1.46377069437122,0.311
1.82778028756032,-1.43686427677887,0.312
1.87761335171236,-1.41119511882414,0.313
1.92878080290334,-1.38681786466487,0.314
1.9812581608205,-1.36378486299027,0.315
2.03501798405102,-1.3421460680863,0.316
2.0900298827466,-1.32194894427358,0.317
2.14626053709783,-1.30323837390665,0.318
2.20367372162434,-1.28605656911825,0.319
2.26223033527497,-1.2704429874867,0.32
2.32188843731968,-1.25643425179842,0.321
2.38260328900265,-1.24406407407128,0.322
2.44432740091399,-1.23336318399779,0.323
2.50701058602502,-1.22435926196009,0.324
2.57060001831996,-1.21707687676124,0.325
2.63504029694488,-1.21153742820973,0.326
2.70027351578259,-1.20775909468604,0.327
2.76623933835054,-1.20575678581168,0.328
2.83287507790685,-1.20554210033281,0.329
2.90011578263842,-1.20712328932144,0.33
2.96789432579347,-1.21050522478829,0.331
3.03614150061011,-1.21568937379196,0.332
3.1047861198817,-1.22267377811968,0.333
3.17375511998921,-1.23145303960493,0.334
3.24297366922079,-1.24201831113762,0.335
3.31236528018904,-1.25435729341236,0.336
3.38185192614664,-1.26845423744987,0.337
3.45135416099271,-1.28428995291688,0.338
3.52079124275272,-1.30184182225879,0.339
3.59008126030759,-1.32108382064939,0.34
3.65914126313886,-1.34198654175106,0.341
3.72788739385056,-1.36451722926849,0.342
3.79623502322073,-1.38863981426824,0.343
3.86409888752999,-1.41431495822591,0.344
3.93139322790828,-1.44150010175209,0.345
3.99803193143614,-1.47014951893784,0.346
4.0639286737317,-1.50021437724971,0.347
4.12899706275111,-1.53164280289442,0.348
4.19315078352592,-1.56437995156241,0.349
4.25630374355849,-1.59836808444999,0.35
4.3183702185939,-1.63354664944935,0.351
4.37926499848511,-1.66985236738615,0.352
4.438903532867,-1.70721932317454,0.353
4.4972020763542,-1.74557906175039,0.354
4.55407783297797,-1.78486068863392,0.355
4.60944909957765,-1.82499097496426,0.356
4.66323540786393,-1.8658944668397,0.357
4.71535766487252,-1.907493598789,0.358
4.76573829152978,-1.94970881119091,0.359
4.8143013590547,-1.99245867145166,0.36
4.86097272292524,-2.03565999874216,0.361
4.90568015414149,-2.07922799209015,0.362
4.94835346752283,-2.12307636161536,0.363
4.98892464678172,-2.16711746268968,0.364
5.02732796612265,-2.21126243279823,0.365
5.06350010812147,-2.25542133087181,0.366
5.09738027764731,-2.29950327885586,0.367
5.12891031159661,-2.34341660527665,0.368
5.15803478421737,-2.38706899056101,0.369
5.18470110780992,-2.43036761386194,0.37
5.20885962859952,-2.47321930113951,0.371
5.23046371758597,-2.51553067424317,0.372
5.24946985618481,-2.55720830073933,0.373
5.26583771648549,-2.59815884422628,0.374
5.2795302359622,-2.63828921487678,0.375
5.29051368648442,-2.67750671994799,0.376
5.29875773748557,-2.7157192139977,0.377
5.30423551315968,-2.75283524854603,0.378
5.30692364356835,-2.78876422092214,0.379
5.30680230955235,-2.82341652203665,0.38
5.3038552813546,-2.85670368282181,0.381
5.29806995087432,-2.88853851908362,0.382
5.2894373574848,-2.91883527451252,0.383
5.27795220736032,-2.94750976160216,0.384
5.26361288627102,-2.97447950022937,0.385
5.24642146581775,-2.99966385365227,0.386
5.22638370309227,-3.0229841616878,0.387
5.2035090337615,-3.04436387083504,0.388
5.17781055858807,-3.06372866111561,0.389
5.14930502341262,-3.08100656940863,0.39
5.11801279263663,-3.09612810906341,0.391
5.08395781625797,-3.10902638558006,0.392
5.04716759052428,-3.11963720815495,0.393
5.00767311228233,-3.12789919689539,0.394
4.96550882711454,-3.13375388551566,0.395
4.92071257136615,-3.13714581933475,0.396
4.87332550817909,-3.13802264840448,0.397
4.82339205766095,-3.13633521560555,0.398
4.77095982132896,-3.13203763955833,0.399
4.71607950098075,-3.12508739220426,0.4
4.65880481215487,-3.11544537092392,0.401
4.59919239235487,-3.10307596506731,0.402
4.53730170422139,-3.08794711678243,0.403
4.47319493384676,-3.07003037603837,0.404
4.4069368844363,-3.04930094975009,0.405
4.33859486552996,-3.02573774492254,0.406
4.26823857800653,-2.99932340574275,0.407
4.19593999510113,-2.97004434455998,0.408
4.12177323967451,-2.93789076670464,0.409
4.0458144579799,-2.90285668910846,0.41
3.96814169018015,-2.86493995269954,0.411
3.88883473787398,-2.82414222855732,0.412
3.80797502889586,-2.78046901782396,0.413
3.72564547965927,-2.73392964538015,0.414
3.6419303553175,-2.68453724730455,0.415
3.55691512802033,-2.63230875214765,0.416
3.47068633354783,-2.57726485606217,0.417
3.38333142660589,-2.51942999184292,0.418
3.2949386350697,-2.45883229194071,0.419
3.20559681346313,-2.39550354552548,0.42
3.11539529596309,-2.32947914968473,0.421
3.02442374921772,-2.26079805485395,0.422
2.9327720252675,-2.18950270458626,0.423
2.84053001485713,-2.11563896977857,0.424
2.74778750142444,-2.03925607748161,0.425
2.6546340160506,-1.96040653443088,0.426
2.56115869365315,-1.87914604544505,0.427
2.46745013069975,-1.79553342684733,0.428
2.37359624471705,-1.70963051507441,0.429
2.27968413586401,-1.62150207064582,0.43
2.1857999508345,-1.53121567767476,0.431
2.09202874934799,-1.43884163910941,0.432
1.9984543734809,-1.34445286790089,0.433
1.90515932008498,-1.24812477430108,0.434
1.81222461653124,-1.14993514950036,0.435
1.71972970001064,-1.0499640458211,0.436
1.62775230061455,-0.948293653688759,0.437
1.53636832840916,-0.845008175607767,0.438
1.44565176470908,-0.740193697373951,0.439
1.35567455774597,-0.633938056759909,0.44
1.26650652291778,-0.526330709913537,0.441
1.17821524779457,-0.41746259571332,0.442
1.09086600204554,-0.307425998327032,0.443
1.00452165244154,-0.196314408222859,0.444
0.919242583075815,-0.0842223818839987,0.445
0.835086620934414,0.0287545995207819,0.446
0.75210896693574,0.142520272257156,0.447
0.67036213254699,0.256977732681873,0.448
0.589895882072888,0.372029580182102,0.449
0.510757180699914,0.487578060144087,0.45
0.432990148366688,0.603525206698719,0.451
0.356636019518664,0.719772984993173,0.452
0.281733108792558,0.836223432739717,0.453
0.208316782663302,0.952778800795297,0.454
0.136419437073529,1.06934169252846,0.455
0.0660704810528691,1.18581520173359,0.456
-0.00270367367834642,1.30210304885629,0.457
-0.069879617139042,1.41810971529818,0.458
-0.135436939581634,1.53374057557397,0.459
-0.19935822409361,1.64890202709907,0.46
-0.261629033361819,1.7635016173915,0.461
-0.32223789066698,1.8774481684779,0.462
-0.381176255187844,1.99065189829995,0.463
-0.438438491706188,2.10302453892405,0.464
-0.494021834815281,2.21447945136473,0.465
-0.547926347745654,2.32493173683925,0.466
-0.600154875932956,2.43429834427891,0.467
-0.650712995463231,2.54249817393088,0.468
-0.699608956541221,2.64945217689255,0.469
-0.746853622137202,2.7550834504291,0.47
-0.792460401977347,2.85931732893424,0.471
-0.836445182051731,2.96208147040291,0.472
-0.878826249822766,3.06330593829444,0.473
-0.919624215325116,3.16292327867405,0.474
-0.958861928355911,3.26086859253054,0.475
-0.996564391961407,3.3570796031778,0.476
-1.03275867243307,3.45149671865801,0.477
-1.06747380603235,3.54406308907444,0.478
-1.10074070266937,3.63472465879199,0.479
-1.13259204676574,3.72343021345427,0.48
-1.16306219553695,3.81013142177592,0.481
-1.19218707493337,3.89478287207963,0.482
-1.22000407348331,3.97734210355765,0.483
-1.2465519342839,4.0577696322479,0.484
-1.27187064538883,4.13602897172505,0.485
