Drag (N),Lift (N),Time (s)
0.259,0.513000000000001,0
0.309361642967963,0.481391831585018,0.001
0.359680016115837,0.449800835687195,0.002
0.409911957021919,0.418244208854552,0.003
0.46001451770729,0.386739195654397,0.004
0.509945070973524,0.355303112576403,0.005
0.559661415683474,0.32395337180654,0.006
0.609121880638645,0.292707504826671,0.007
0.658285426711641,0.261583185792855,0.008
0.707111746898323,0.230598254643209,0.009
0.755561363961677,0.199770739883563,0.01
0.8035957253479,0.169118880996269,0.011
0.851177295064801,0.138661150414205,0.012
0.898269642223395,0.108416274998542,0.013
0.944837525955246,0.0784032569550353,0.014
0.99084697643094,0.0486413941196391,0.015
1.03626537171875,0.0191502995401669,0.016
1.08106151023718,-0.0100500797235142,0.017
1.12520567857046,-0.0389394446624718,0.018
1.16866971443256,-0.0674971273308215,0.019
1.21142706458189,-0.0957020748970344,0.02
1.2534528375068,-0.123532834828508,0.021
1.29472385072023,-0.150967541307264,0.022
1.3352186725203,-0.177983902978168,0.023
1.37491765809342,-0.204559192134302,0.024
1.41380297985551,-0.230670235446938,0.025
1.45185865194747,-0.256293406349977,0.026
1.48907054882068,-0.281404619190628,0.027
1.52542641786907,-0.305979325259444,0.028
1.56091588608459,-0.329992510813613,0.029
1.59553046073337,-0.353418697207491,0.03
1.62926352407036,-0.376231943243779,0.031
1.66211032213047,-0.398405849857429,0.032
1.69406794765439,-0.419913567242236,0.033
1.72513531722705,-0.440727804527202,0.034
1.75531314272611,-0.460820842105949,0.035
1.78460389719717,-0.480164546717904,0.036
1.81301177529058,-0.498730389374447,0.037
1.84054264841319,-0.516489466216856,0.038
1.86720401476556,-0.533412522385583,0.039
1.89300494445192,-0.549469978972258,0.04
1.91795601986642,-0.564631963116707,0.041
1.94206927157414,-0.578868341301373,0.042
1.96535810992013,-0.592148755884709,0.043
1.98783725261293,-0.604442664903478,0.044
2.00952264854194,-0.615719385161505,0.045
2.0304313980995,-0.625948138609167,0.046
2.05058167028925,-0.635098102004084,0.047
2.06999261691192,-0.643138459828838,0.048
2.08868428412839,-0.650038460426401,0.049
2.1066775217071,-0.655767475298224,0.05
2.12399389026949,-0.66029506149372,0.051
2.14065556685222,-0.663591027003307,0.052
2.15668524910913,-0.665625499050181,0.053
2.1721060584787,-0.666368995158869,0.054
2.18694144264484,-0.665792496861249,0.055
2.2012150776192,-0.663867525883306,0.056
2.2149507697729,-0.660566222638533,0.057
2.22817235814396,-0.655861426836621,0.058
2.24090361734389,-0.649726759999001,0.059
2.25316816138307,-0.642136709656139,0.06
2.2649893487298,-0.633066714985093,0.061
2.27639018891164,-0.622493253630105,0.062
2.28739325096105,-0.610393929433777,0.063
2.29802057399888,-0.596747560791945,0.064
2.30829358024081,-0.581534269331689,0.065
2.31823299070152,-0.56473556859919,0.066
2.32785874386104,-0.546334452432393,0.067
2.33718991754575,-0.526315482682815,0.068
2.34624465426451,-0.50466487594133,0.069
2.35504009022704,-0.481370588914612,0.07
2.36359228825796,-0.45642240209202,0.071
2.37191617480562,-0.42981200133728,0.072
2.38002548122965,-0.401533057035341,0.073
2.38793268953578,-0.371581300422387,0.074
2.39564898271056,-0.339954596726091,0.075
2.4031841997921,-0.306653014744092,0.076
2.41054679579642,-0.271678892491079,0.077
2.41774380660192,-0.235036898549126,0.078
2.42478081887723,-0.19673408876182,0.079
2.43166194512065,-0.156779957920421,0.08
2.43838980386134,-0.1151864860997,0.081
2.44496550505583,-0.0719681793123312,0.082
2.45138864069496,-0.0271421041635779,0.083
2.45765728061991,0.0192720837972913,0.084
2.4637679735281,0.0672521183161365,0.085
2.46971575313309,0.116773107532901,0.086
2.47549414942575,0.167807526190097,0.087
2.48109520496742,0.220325215179402,0.088
2.48650949612997,0.274293388632336,0.089
2.49172615918165,0.329676648736997,0.09
2.49673292110278,0.386437008437488,0.091
2.50151613500041,0.444533922146096,0.092
2.50606081997698,0.503924324570598,0.093
2.5103507052947,0.564562677730322,0.094
2.51436827866417,0.626401026204937,0.095
2.51809483847371,0.68938906062947,0.096
2.52151054976452,0.753474189417955,0.097
2.52459450374563,0.818601618666348,0.098
2.52732478063306,0.884714440153301,0.099
2.5296785155881,0.951753727324936,0.1
2.53163196752134,1.01965863911723,0.101
2.53316059052161,1.08836653143711,0.102
2.53423910766221,1.15781307609089,0.103
2.53484158693101,1.22793238691655,0.104
2.53494151902608,1.29865715284487,0.105
2.5345118967545,1.36991877758301,0.106
2.53352529576876,1.44164752558393,0.107
2.53195395637287,1.51377267393561,0.108
2.5297698661291,1.58622266977533,0.109
2.52694484299557,1.65892529280698,0.11
2.52345061872545,1.73180782247334,0.111
2.5192589222597,1.80479720931055,0.112
2.51434156284753,1.87782024998882,0.113
2.50867051263162,1.950803765522,0.114
2.50221798843903,2.02367478210881,0.115
2.49495653252328,2.09636071405079,0.116
2.48685909200858,2.168789548176,0.117
2.47789909679334,2.2408900291838,0.118
2.46805053567684,2.31259184531419,0.119
2.457288030481,2.38382581373578,0.12
2.44558690794696,2.45452406503921,0.121
2.43292326919559,2.52462022621804,0.122
2.41927405655048,2.59404960151625,0.123
2.40461711753209,2.66274935052185,0.124
2.3889312658426,2.73065866288789,0.125
2.37219633917212,2.79771892906724,0.126
2.35439325366881,2.86387390645442,0.127
2.33550405492746,2.92906988033732,0.128
2.31551196536377,2.99325581907385,0.129
2.29440142785442,3.05638352292246,0.13
2.27215814553627,3.11840776597258,0.131
2.24876911767171,3.17928643063949,0.132
2.22422267150054,3.23898063420968,0.133
2.19850849001316,3.29745484694554,0.134
2.17161763559369,3.35467700128409,0.135
2.14354256949566,3.410618591691,0.136
2.11427716712767,3.46525476476106,0.137
2.08381672914012,3.51856439918635,0.138
2.05215798831865,3.5705301752464,0.139
2.01929911230409,3.6211386335083,0.14
1.98523970217267,3.67038022246021,0.141
1.94998078692418,3.71824933483816,0.142
1.91352481393938,3.76474433244391,0.143
1.87587563548166,3.80986755928997,0.144
1.83703849133078,3.8536253429475,0.145
1.79701998764964,3.89602798401266,0.146
1.75582807219731,3.93708973364755,0.147
1.71347200601388,3.97682875919266,0.148
1.66996233171411,4.01526709788859,0.149
1.62531083853813,4.05243059878588,0.15
1.57953052431814,4.08834885296229,0.151
1.53263555453009,4.12305511220754,0.152
1.48464121860904,4.1565861963751,0.153
1.43556388371557,4.18898238964006,0.154
1.38542094614916,4.2202873259405,0.155
1.33423078061201,4.25054786391696,0.156
1.2820126875336,4.2798139517013,0.157
1.22878683867274,4.3081384819411,0.158
1.17457422121908,4.33557713747932,0.159
1.11939658062105,4.36218822814137,0.16
1.06327636237087,4.38803251911201,0.161
1.00623665298054,4.41317305141336,0.162
0.948301120385154,4.43767495502224,0.163
0.88949395401108,4.46160525518974,0.164
0.829839804747538,4.48503267254929,0.165
0.769363725059668,4.50802741761957,0.166
0.708091109480285,4.5306609803278,0.167
0.646047635715561,4.5530059151948,0.168
0.583259206597143,4.57513562283728,0.169
0.519751893109608,4.59712412845457,0.17
0.455551878717676,4.61904585797599,0.171
0.390685405212353,4.64097541255202,0.172
0.32517872028899,4.6629873420767,0.173
0.259058027063321,4.68515591843085,0.174
0.192349435723792,4.70755490913498,0.175
0.125078917509921,4.73025735209811,0.176
0.0572722611971478,4.75333533214342,0.177
-0.0110449677414279,4.77685975998417,0.178
-0.0798474651367783,4.80090015431345,0.179
-0.149110223140966,4.82552442765932,0.18
-0.218808562123352,4.85079867664262,0.181
-0.288918159322603,4.87678697725865,0.182
-0.359415074144433,4.90355118578523,0.183
-0.430275770008788,4.93115074589994,0.184
-0.501477132664553,4.95964250256686,0.185
-0.572996484904604,4.98908052322953,0.186
-0.644811597629199,5.01951592682173,0.187
-0.716900697221211,5.05099672108009,0.188
-0.789242469212529,5.08356764861521,0.189
-0.861816058236998,5.11727004216753,0.19
-0.934601064281484,5.15214168944414,0.191
-1.00757753526305,5.18821670790049,0.192
-1.08072595597659,5.22552542979886,0.193
-1.15402723347375,5.26409429784155,0.194
-1.22746267895032,5.30394577164314,0.195
-1.30101398623544,5.34509824527138,0.196
-1.37466320699215,5.3875659760515,0.197
-1.44839272275451,5.43135902479352,0.198
-1.52218521394199,5.476483207567,0.199
-1.59602362600705,5.52294005911215,0.2
-1.66989113288625,5.57072680794135,0.201
-1.74377109793957,5.61983636315023,0.202
-1.81764703257605,5.67025731292261,0.203
-1.89150255277685,5.72197393468019,0.204
-1.96532133373884,5.7749662167937,0.205
-2.03908706287359,5.82920989174017,0.206
-2.1127833914069,5.88467648055841,0.207
-2.18639388483403,5.94133334842419,0.208
-2.25990197249441,5.99914377113619,0.209
-2.33329089653745,6.05806701227483,0.21
-2.40654366055806,6.11805841076827,0.211
-2.47964297818583,6.17906947857291,0.212
-2.55257122191685,6.24104800815047,0.213
-2.62531037248028,6.30393818939943,0.214
-2.69784196903405,6.36768073567583,0.215
-2.77014706048537,6.43221301851727,0.216
-2.84220615823124,6.49746921066345,0.217
-2.91399919061282,6.56338043694896,0.218
-2.98550545937472,6.62987493262627,0.219
-3.05670359841633,6.69687820866186,0.22
-3.12757153511695,6.76431322353445,0.221
-3.19808645450973,6.8321005610519,0.222
-3.26822476657181,6.90015861369224,0.223
-3.33796207688869,6.96840377096553,0.224
-3.40727316094036,7.03675061228472,0.225
-3.4761319422454,7.10511210382801,0.226
-3.54451147458589,7.17339979886993,0.227
-3.61238392852252,7.24152404105525,0.228
-3.67972058239352,7.30939417008759,0.229
-3.74649181797532,7.37691872930436,0.23
-3.81266712096511,7.44400567461017,0.231
-3.87821508642755,7.51056258424303,0.232
-3.94310342932845,7.57649686885101,0.233
-4.00729900025828,7.64171598136169,0.234
-4.07076780642759,7.70612762613234,0.235
-4.13347503799478,7.76963996687584,0.236
-4.1953850997647,7.8321618328651,0.237
-4.25646164827342,7.89360292292801,0.238
-4.3166676342521,7.95387400675474,0.239
-4.37596535043841,8.01288712305011,0.24
-4.43431648468114,8.07055577407569,0.241
-4.49168217825881,8.12679511613869,0.242
-4.54802308930973,8.18152214559827,0.243
-4.6032994612465,8.23465587997377,0.244
-4.65747119600432,8.28611753375446,0.245
-4.71049793194863,8.33583068852532,0.246
-4.76233912624454,8.38372145703986,0.247
-4.81295414146742,8.42971864088703,0.248
-4.86230233621184,8.47375388141659,0.249
-4.91034315943427,8.51576180360444,0.25
-4.95703624824428,8.55568015255756,0.251
-5.00234152883857,8.59344992237616,0.252
-5.04621932025345,8.62901547710915,0.253
-5.08863044059289,8.66232466355811,0.254
-5.12953631537294,8.69332891570377,0.255
-5.16889908760694,8.72198335054839,0.256
-5.20668172924222,8.74824685518703,0.257
-5.24284815354565,8.7720821649401,0.258
-5.27736332802386,8.7934559323999,0.259
-5.31019338745437,8.81233878726316,0.26
-5.34130574659507,8.82870538684235,0.261
-5.37066921213317,8.84253445716787,0.262
-5.39825409342944,8.85380882461416,0.263
-5.42403231161069,8.86251543800238,0.264
-5.44797750656177,8.86864538115298,0.265
-5.47006514136893,8.87219387588122,0.266
-5.49027260376847,8.87316027544956,0.267
-5.50857930415917,8.8715480485102,0.268
-5.52496676974237,8.8673647535919,0.269
-5.53941873436208,8.86062200420461,0.27
-5.55192122362684,8.85133542465588,0.271
-5.56246263490688,8.83952459669245,0.272
-5.57103381181339,8.82521299710016,0.273
-5.57762811278214,8.80842792641509,0.274
-5.58224147340039,8.78920042891788,0.275
-5.58487246213497,8.76756520410226,0.276
-5.58552232913945,8.74356050982818,0.277
-5.58419504784054,8.71722805738789,0.278
-5.58089734902676,8.68861289873236,0.279
-5.57563874718778,8.6577633061228,0.28
-5.56843155887855,8.6247306444905,0.281
-5.55929091290988,8.58956923680475,0.282
-5.54823475219575,8.55233622276603,0.283
-5.53528382711698,8.51309141115799,0.284
-5.52046168029154,8.47189712620762,0.285
-5.50379462267303,8.42881804831851,0.286
-5.48531170093077,8.38392104955703,0.287
-5.46504465609753,8.33727502428541,0.288
-5.44302787350394,8.28895071534952,0.289
-5.41929832405178,8.23902053624161,0.29
-5.39389549691174,8.18755838967114,0.291
-5.36686132376491,8.1346394829875,0.292
-5.33824009474038,8.08034014090938,0.293
-5.30807836623446,8.02473761602501,0.294
-5.27642486082975,7.96790989753642,0.295
-5.24333035956454,7.90993551872815,0.296
-5.2088475868344,7.85089336364816,0.297
-5.17303108823848,7.7908624734937,0.298
-5.13593710171307,7.72992185319984,0.299
-5.09762342232337,7.66815027873156,0.3
-5.05814926111203,7.6056261055823,0.301
-5.01757509842949,7.54242707898286,0.302
-4.97596253219537,7.47863014632444,0.303
-4.93337412156392,7.41431127229708,0.304
-4.88987322648786,7.34954525724291,0.305
-4.84552384369476,7.28440555921775,0.306
-4.80039043960817,7.21896412025013,0.307
-4.75453778076168,7.15329119727861,0.308
-4.70803076226837,7.08745519823984,0.309
-4.66093423491949,7.02152252376984,0.31
-4.61331283149686,6.95555741496911,0.311
-4.56523079289034,6.88962180766928,0.312
-4.51675179461751,6.82377519362434,0.313
-4.46793877434568,6.7580744890337,0.314
-4.41885376101723,6.69257391078686,0.315
-4.36955770617745,6.6273248608006,0.316
-4.32011031810074,6.56237581879948,0.317
-4.2705698993042,6.49777224386903,0.318
-4.2209931880297,6.43355648508798,0.319
-4.17143520426434,6.36976770152182,0.32
-4.12194910085639,6.3064417918349,0.321
-4.07258602026836,6.24361133375155,0.322
-4.02339495749167,6.18130553356921,0.323
-3.97442262962737,6.11955018589831,0.324
-3.92571335261644,6.05836764377359,0.325
-3.87730892557894,5.99777679925187,0.326
-3.82924852319638,5.93779307457953,0.327
-3.78156859654427,5.87842842398165,0.328
-3.73430278275281,5.81969134609215,0.329
-3.68748182384347,5.76158690701143,0.33
-3.64113349505708,5.70411677394503,0.331
-3.59528254295589,5.64727925934299,0.332
-3.54995063354755,5.59106937542635,0.333
-3.50515631064352,5.53547889895345,0.334
-3.46091496462781,5.48049644604504,0.335
-3.41723881177478,5.42610755685422,0.336
-3.37413688421693,5.37229478983393,0.337
-3.33161503062478,5.31903782532246,0.338
-3.28967592762273,5.26631357813547,0.339
-3.24831910192552,5.21409631882183,0.34
-3.20754096314075,5.16235780321029,0.341
-3.1673348471445,5.11106740984468,0.342
-3.12769106989795,5.06019228487708,0.343
-3.08859699153511,5.00969749396131,0.344
-3.05003709051363,4.95954618066358,0.345
-3.01199304758435,4.90969973088261,0.346
-2.97444383929857,4.86011794274927,0.347
-2.93736584073714,4.81075920145431,0.348
-2.90073293711189,4.76158065843398,0.349
-2.86451664385649,4.71253841432563,0.35
-2.82868623479332,4.66358770509011,0.351
-2.79320887793271,4.61468309068436,0.352
-2.7580497784329,4.56577864565652,0.353
-2.72317232822281,4.51682815102636,0.354
-2.6885382617651,4.46778528680741,0.355
-2.65410781741433,4.41860382452245,0.356
-2.61983990380484,4.36923781906162,0.357
-2.58569227068401,4.31964179923296,0.358
-2.55162168359084,4.26977095635709,0.359
-2.51758410176537,4.21958133026333,0.36
-2.48353485866303,4.16902999205135,0.361
-2.4494288444384,4.11807522299251,0.362
-2.41522068975606,4.06667668895676,0.363
-2.38086495028136,4.014795609766,0.364
-2.346316291202,3.9623949228909,0.365
-2.31152967113116,3.9094394409278,0.366
-2.27646052474599,3.85589600231314,0.367
-2.24106494351975,3.80173361475658,0.368
-2.20529985391362,3.74692359089924,0.369
-2.16912319240388,3.69143967573096,0.37
-2.13249407673196,3.63525816533006,0.371
-2.09537297277918,3.57835801651979,0.372
-2.05772185648463,3.52072094706892,0.373
-2.01950437024288,3.46233152609788,0.374
-1.98068597323883,3.40317725438785,0.375
-1.9412340851999,3.34324863432723,0.376
-1.90111822306956,3.2825392292681,0.377
-1.86031013013281,3.22104571210434,0.378
-1.81878389715201,3.15876790292345,0.379
-1.77651607510044,3.0957087956244,0.38
-1.73348577911238,3.03187457343544,0.381
-1.68967478329992,2.96727461330722,0.382
-1.64506760612078,2.90192147919828,0.383
-1.59965158601498,2.83583090431193,0.384
-1.55341694706413,2.76902176238507,0.385
-1.50635685446285,2.70151602817077,0.386
-1.45846745962855,2.63333872729722,0.387
-1.40974793481326,2.56451787572598,0.388
-1.36020049711844,2.49508440907131,0.389
-1.30983042185187,2.42507210208118,0.39
-1.25864604520343,2.35451747861705,0.391
-1.20665875625441,2.28345971250587,0.392
-1.15388297837288,2.21194051967145,0.393
-1.10033614008454,2.14000404198547,0.394
-1.04603863554583,2.06769672330896,0.395
-0.991013774781882,1.99506717822412,0.396
-0.935287723887654,1.9221660539834,0.397
-0.878889435425066,1.84904588622713,0.398
-0.821850569282773,1.7757609490441,0.399
-0.764205404297577,1.70236709996897,0.4
-0.705990740967921,1.62892162052848,0.401
-0.647245795619866,1.55548305296351,0.402
-0.588012086414521,1.4821110337663,0.403
-0.528333311612938,1.40886612468247,0.404
-0.468255220539942,1.33580964183419,0.405
-0.407825477712045,1.26300348362551,0.406
-0.34709352061662,1.19050995809251,0.407
-0.286110411649564,1.11839161035975,0.408
-0.224928684736964,1.04671105086053,0.409
-0.163602187182471,0.975530784972037,0.41
-0.102185917296416,0.904913044706839,0.411
-0.0407358583748562,0.834919623090221,0.412
0.020691190393041,0.765611711838168,0.413
0.0820377855028788,0.697049742933428,0.414
0.143246012605771,0.629293234677331,0.415
0.204257661275726,0.562400642772822,0.416
0.265014400475723,0.496429216969619,0.417
0.325457954124894,0.431434863775686,0.418
0.38553027617169,0.367472015710325,0.419
0.445173724582438,0.30459350754345,0.42
0.504331233661205,0.242850459932901,0.421
0.562946484125478,0.182292170837391,0.422
0.620964070372599,0.122966015046806,0.423
0.678329664384288,0.0649173521343475,0.424
0.734990175730823,0.00818944309661437,0.425
0.790893907152355,-0.0471766240917761,0.426
0.845990705212577,-0.101141999822699,0.427
0.900232105539241,-0.153670128952857,0.428
0.953571472186817,-0.204726797552065,0.429
1.00596413067896,-0.254280170239425,0.43
1.05736749431202,-0.302300818087182,0.431
1.10774118332587,-0.348761737113883,0.432
1.15704713657431,-0.393638357429991,0.433
1.20524971535454,-0.436908543140215,0.434
1.25231579908347,-0.478552583147244,0.435
1.29821487253732,-0.518553173041208,0.436
1.34291910440118,-0.556895388297828,0.437
1.38640341690513,-0.593566649045637,0.438
1.42864554635491,-0.628556676698758,0.439
1.46962609439627,-0.661857442786334,0.44
1.50932856988376,-0.693463110342587,0.441
1.54773942125692,-0.723369968252596,0.442
1.58484805935843,-0.75157635897804,0.443
1.62064687066109,-0.778082600114172,0.444
1.65513122090214,-0.802890900254154,0.445
1.68829944915511,-0.826005269659377,0.446
1.7201528524007,-0.847431426254482,0.447
1.75069566068896,-0.867176697483387,0.448
1.77993500301539,-0.885249918577566,0.449
1.80788086406323,-0.901661327800173,0.45
1.83454603199317,-0.916422459239204,0.451
1.85994603748978,-0.929546033729724,0.452
1.88409908430121,-0.941045848489265,0.453
1.90702597153498,-0.95093666605177,0.454
1.92875000799769,-0.959234103083903,0.455
1.94929691889079,-0.965954519663259,0.456
1.9686947451971,-0.971114909590884,0.457
1.98697373611441,-0.974732792300728,0.458
2.00416623491296,-0.976826106916125,0.459
2.02030655861199,-0.977413108988337,0.46
2.03543087188852,-0.976512270434469,0.461
2.049577055647,-0.974142183172048,0.462
2.06278457069334,-0.970321466925,0.463
2.07509431696937,-0.965068681651134,0.464
2.0865484888155,-0.958402245014333,0.465
2.09719042673882,-0.950340355295868,0.466
2.10706446617227,-0.94090092010853,0.467
2.11621578371688,-0.93010149124487,0.468
2.12469024136425,-0.917959205956898,0.469
2.13253422919959,-0.904490734929228,0.47
2.13979450708736,-0.88971223717109,0.471
2.14651804584187,-0.873639322015019,0.472
2.15275186838352,-0.856287018371551,0.473
2.1585428913785,-0.837669751350117,0.474
2.16393776785501,-0.817801326316633,0.475
2.16898273128338,-0.796694920418404,0.476
2.17372344159944,-0.774363081566832,0.477
2.17820483364191,-0.750817734828506,0.478
2.1824709684641,-0.726070196135501,0.479
2.18656488796835,-0.70013119318652,0.48
2.19052847329892,-0.67301089337191,0.481
2.19440230741451,-0.644718938517847,0.482
2.19822554224636,-0.615264486208276,0.483
2.20203577083117,-0.584656257407653,0.484
2.2058689047905,-0.552902590073375,0.485
2.20975905750977,-0.520011498414198,0.486
