Drag (N),Lift (N),Time (s)
0.94500000000002,-0.473000000000001,0
0.959939569562058,-0.502030799368906,0.001
0.974862620471606,-0.53102868653918,0.002
0.989752666242587,-0.559960796425421,0.003
1.00459328465665,-0.588794358091631,0.004
1.01936814973449,-0.617496741633456,0.005
1.03406106351239,-0.646035504829834,0.006
1.04865598755986,-0.674378439487883,0.007
1.06313707417452,-0.702493617405365,0.008
1.07748869719117,-0.730349435875774,0.009
1.09169548234291,-0.757914662661966,0.01
1.10574233711282,-0.785158480365153,0.011
1.11961448001606,-0.81205053011725,0.012
1.13329746925319,-0.838560954525743,0.013
1.14677723067705,-0.864660439801649,0.014
1.16004008501681,-0.890320257002594,0.015
1.17307277430431,-0.915512302324656,0.016
1.18586248744961,-0.940209136378366,0.017
1.19839688491445,-0.964384022386056,0.018
1.21066412243386,-0.988010963239759,0.019
1.22265287373868,-1.01106473736089,0.02
1.23435235223328,-1.03352093330511,0.021
1.24575233158538,-1.05535598305806,0.022
1.25684316518669,-1.07654719397005,0.023
1.267615804446,-1.0970727792801,0.024
1.27806181587801,-1.11691188718249,0.025
1.2881733969545,-1.13604462839142,0.026
1.29794339068635,-1.15445210216217,0.027
1.3073652989078,-1.17211642072989,0.028
1.31643329423719,-1.18902073212997,0.029
1.32514223069076,-1.20514924136691,0.03
1.33348765292918,-1.22048722990142,0.031
1.34146580411918,-1.23502107342864,0.032
1.3490736323955,-1.24873825792336,0.033
1.35630879591129,-1.26162739393095,0.034
1.36316966646788,-1.27367822908637,0.035
1.36965533171803,-1.28488165884613,0.036
1.37576559593924,-1.29522973542171,0.037
1.38150097937711,-1.30471567490575,0.038
1.38686271616141,-1.31333386258581,0.039
1.39185275080034,-1.32107985644348,0.04
1.39647373326164,-1.32795038883966,0.041
1.40072901265187,-1.33394336639038,0.042
1.40462262950808,-1.33905786804025,0.043
1.40815930671903,-1.34329414134396,0.044
1.41134443909558,-1.34665359696928,0.045
1.41418408161311,-1.34913880143805,0.046
1.41668493635095,-1.35075346812468,0.047
1.41885433815686,-1.35150244653453,0.048
1.42070023906689,-1.3513917098876,0.049
1.42223119151369,-1.35042834103575,0.05
1.42345633035844,-1.34862051674432,0.051
1.42438535378428,-1.34597749037197,0.052
1.42502850309113,-1.34250957298492,0.053
1.42539654143403,-1.33822811294474,0.054
1.42550073154925,-1.33314547401077,0.055
1.42535281251449,-1.32727501200117,0.056
1.4249649755911,-1.32063105005856,0.057
1.42434983919842,-1.31322885256858,0.058
1.42352042307175,-1.30508459778174,0.059
1.42249012165705,-1.29621534919095,0.06
1.42127267679715,-1.28663902571905,0.061
1.41988214976534,-1.27637437077236,0.062
1.41833289270348,-1.26544092021813,0.063
1.41663951952313,-1.25385896934504,0.064
1.41481687632876,-1.24164953886767,0.065
1.41288001142333,-1.22883434003692,0.066
1.41084414495705,-1.21543573891977,0.067
1.40872463828083,-1.20147671991264,0.068
1.40653696306636,-1.18698084855374,0.069
1.4042966702551,-1.17197223370057,0.07
1.40201935889875,-1.15647548913936,0.071
1.39972064495377,-1.14051569469398,0.072
1.39741613009252,-1.12411835690199,0.073
1.39512137059346,-1.10730936932632,0.074
1.39285184637241,-1.09011497257058,0.075
1.39062293021672,-1.07256171406676,0.076
1.38844985728323,-1.05467640770346,0.077
1.38634769492073,-1.03648609336289,0.078
1.38433131287634,-1.01801799643453,0.079
1.38241535394474,-0.999299487372744,0.08
1.38061420511771,-0.980358041365236,0.081
1.3789419692908,-0.961221198178494,0.082
1.37741243758214,-0.941916522245513,0.083
1.37603906231745,-0.922471563060246,0.084
1.37483493073358,-0.902913815942116,0.085
1.37381273945146,-0.883270683232807,0.086
1.37298476976749,-0.86356943598633,0.087
1.37236286381087,-0.843837176211902,0.088
1.3719584016122,-0.824100799727819,0.089
1.37178227912697,-0.804386959682844,0.09
1.3718448872553,-0.784722030800051,0.091
1.37215609189732,-0.765132074396256,0.092
1.37272521508139,-0.745642804228366,0.093
1.37356101719985,-0.726279553216043,0.094
1.37467168038499,-0.707067241088084,0.095
1.37606479305531,-0.688030342997847,0.096
1.37774733565971,-0.669192859150918,0.097
1.37972566764489,-0.650578285485992,0.098
1.38200551566853,-0.632209585447699,0.099
1.38459196307834,-0.614109162887762,0.1
1.38748944067445,-0.596298836128525,0.101
1.39070171876992,-0.578799813220451,0.102
1.39423190056153,-0.561632668422759,0.103
1.39808241682035,-0.544817319933858,0.104
1.40225502190886,-0.52837300889573,0.105
1.4067507911287,-0.512318279693864,0.106
1.4115701194005,-0.496670961571775,0.107
1.41671272127444,-0.481448151576584,0.108
1.42217763226762,-0.46666619884952,0.109
1.42796321152176,-0.452340690272644,0.11
1.43406714577165,-0.438486437480487,0.111
1.44048645461295,-0.425117465242726,0.112
1.44721749705454,-0.412247001221441,0.113
1.4542559793387,-0.399887467103962,0.114
1.46159696400962,-0.388050471109759,0.115
1.46923488020832,-0.376746801867346,0.116
1.47716353516983,-0.365986423654694,0.117
1.48537612689595,-0.355778472994202,0.118
1.49386525797472,-0.346131256590887,0.119
1.50262295051571,-0.337052250600104,0.12
1.5116406621678,-0.328548101208813,0.121
1.52090930318424,-0.320624626512139,0.122
1.53041925449795,-0.313286819664824,0.123
1.54016038676779,-0.306538853284996,0.124
1.55012208035509,-0.300384085085653,0.125
1.56029324618772,-0.294825064707254,0.126
1.57066234746762,-0.289863541722895,0.127
1.58121742217596,-0.285500474785691,0.128
1.59194610632893,-0.281736041886234,0.129
1.60283565793553,-0.278569651686316,0.13
1.61387298160784,-0.275999955893483,0.131
1.62504465377293,-0.274024862639512,0.132
1.63633694843456,-0.272641550824443,0.133
1.64773586343218,-0.271846485386483,0.134
1.65922714714349,-0.271635433456879,0.135
1.67079632557677,-0.272003481357672,0.136
1.68242872979797,-0.27294505239924,0.137
1.69410952363766,-0.274453925433558,0.138
1.70582373162232,-0.276523254118269,0.139
1.71755626707416,-0.279145586845909,0.14
1.72929196032394,-0.282312887291966,0.141
1.74101558698074,-0.286016555534919,0.142
1.75271189620328,-0.29024744970094,0.143
1.76436563891716,-0.294995908085604,0.144
1.77596159592311,-0.300251771704702,0.145
1.78748460584153,-0.306004407226085,0.146
1.7989195928393,-0.312242730234469,0.147
1.81025159408553,-0.31895522878111,0.148
1.82146578688351,-0.326129987170467,0.149
1.83254751542721,-0.333754709936194,0.15
1.84348231713164,-0.341816745959116,0.151
1.8542559484872,-0.350303112680329,0.152
1.86485441038969,-0.359200520363036,0.153
1.8752639728986,-0.368495396357377,0.154
1.8854711993779,-0.378173909323197,0.155
1.89546296997466,-0.388221993366491,0.156
1.9052265043929,-0.398625372046117,0.157
1.9147493839209,-0.409369582208347,0.158
1.92401957267266,-0.420439997607809,0.159
1.93302543800541,-0.431821852274505,0.16
1.94175577007706,-0.443500263587763,0.161
1.95019980050941,-0.455460255019172,0.162
1.95834722012484,-0.467686778507936,0.163
1.96618819572608,-0.480164736433346,0.164
1.97371338589088,-0.49287900315058,0.165
1.98091395575547,-0.505814446057476,0.166
1.98778159076258,-0.518955946161421,0.167
1.99430850935234,-0.53228841811716,0.168
2.00048747457636,-0.545796829707831,0.169
2.00631180461747,-0.559466220743293,0.17
2.01177538220002,-0.573281721351421,0.171
2.01687266287784,-0.587228569639821,0.172
2.02159868218927,-0.601292128707123,0.173
2.02594906167078,-0.615457902984818,0.174
2.02992001372343,-0.629711553892351,0.175
2.03350834532828,-0.644038914790034,0.176
2.03671146060934,-0.658426005216105,0.177
2.03952736224508,-0.672859044396136,0.178
2.04195465173147,-0.687324464014759,0.179
2.04399252850216,-0.70180892024155,0.18
2.04564078791328,-0.716299305004686,0.181
2.0468998181028,-0.73078275650783,0.182
2.04777059573658,-0.745246668987467,0.183
2.04825468065505,-0.759678701709707,0.184
2.04835420943705,-0.77406678720731,0.185
2.04807188789904,-0.788399138759428,0.186
2.04741098255008,-0.802664257118267,0.187
2.04637531102482,-0.816850936488517,0.188
2.04496923151888,-0.83094826976706,0.189
2.04319763125252,-0.844945653052041,0.19
2.04106591399049,-0.858832789431961,0.191
2.03857998664777,-0.872599692066928,0.192
2.03574624501223,-0.886236686575712,0.193
2.03257155861713,-0.899734412743595,0.194
2.02906325479777,-0.913083825567431,0.195
2.02522910196803,-0.926276195655584,0.196
2.02107729215383,-0.93930310900167,0.197
2.01661642282198,-0.95215646615222,0.198
2.01185547804396,-0.964828480789476,0.199
2.00680380903523,-0.977311677751609,0.2
2.00147111411177,-0.989598890513624,0.201
1.99586741810653,-1.00168325815313,0.202
1.99000305128914,-1.01355822182599,0.203
1.9838886278331,-1.02521752077775,0.204
1.97753502387533,-1.03665518791715,0.205
1.9709533552135,-1.04786554497918,0.206
1.9641549546869,-1.05884319730503,0.207
1.9571513492873,-1.06958302826741,0.208
1.94995423704618,-1.08008019336964,0.209
1.9425754637452,-1.0903301140475,0.21
1.93502699949652,-1.10032847120306,0.211
1.92732091524013,-1.11007119849971,0.212
1.91946935920458,-1.11955447544796,0.213
1.91148453337792,-1.12877472031149,0.214
1.90337867003498,-1.1377285828628,0.215
1.89516400836705,-1.14641293701785,0.216
1.88685277125926,-1.15482487337872,0.217
1.87845714226071,-1.16296169171334,0.218
1.86998924279167,-1.1708208934005,0.219
1.86146110963128,-1.1784001738685,0.22
1.85288467272878,-1.18569741505498,0.221
1.84427173337997,-1.19271067791493,0.222
1.8356339428101,-1.19943819500353,0.223
1.82698278120295,-1.20587836315945,0.224
1.81832953721505,-1.21202973631378,0.225
1.80968528801279,-1.21789101844883,0.226
1.80106087986868,-1.22346105673029,0.227
1.79246690935211,-1.22873883483514,0.228
1.7839137051483,-1.23372346649706,0.229
1.77541131053774,-1.23841418928979,0.23
1.76696946656714,-1.24281035866793,0.231
1.75859759594113,-1.24691144228376,0.232
1.75030478766252,-1.25071701459717,0.233
1.74209978244728,-1.254226751795,0.234
1.73399095893868,-1.25744042703453,0.235
1.72598632074334,-1.26035790602494,0.236
1.71809348431029,-1.262979142959,0.237
1.71031966767217,-1.26530417680621,0.238
1.70267168006618,-1.2673331279771,0.239
1.69515591245018,-1.2690661953672,0.24
1.68777832892789,-1.27050365378772,0.241
1.68054445909505,-1.27164585178877,0.242
1.67345939131643,-1.27249320987934,0.243
1.66652776694209,-1.27304621914729,0.244
1.65975377546886,-1.2733054402806,0.245
1.65314115065157,-1.2732715029905,0.246
1.64669316756642,-1.27294510583498,0.247
1.64041264062704,-1.27232701644054,0.248
1.63430192255202,-1.27141807211792,0.249
1.62836290428062,-1.270219180867,0.25
1.62259701583167,-1.26873132276403,0.251
1.61700522809891,-1.26695555172357,0.252
1.61158805557391,-1.26489299762598,0.253
1.60634555998636,-1.2625448688,0.254
1.60127735484931,-1.25991245484905,0.255
1.59638261089569,-1.25699712980829,0.256
1.5916600623903,-1.25380035561865,0.257
1.5871080143002,-1.2503236859028,0.258
1.58272435030464,-1.24656877002679,0.259
1.57850654162412,-1.24253735743054,0.26
1.57445165664671,-1.23823130220874,0.261
1.57055637132836,-1.2336525679233,0.262
1.56681698034236,-1.22880323262747,0.263
1.56322940895194,-1.22368549408061,0.264
1.55978922557865,-1.2183016751324,0.265
1.55649165503786,-1.21265422925396,0.266
1.55333159241173,-1.20674574619313,0.267
1.55030361752865,-1.20057895773031,0.268
1.54740201001738,-1.19415674351083,0.269
1.54462076490296,-1.18748213692934,0.27
1.54195360871063,-1.18055833104114,0.271
1.53939401604323,-1.17338868447539,0.272
1.5369352265966,-1.16597672732437,0.273
1.53457026257712,-1.15832616698321,0.274
1.53229194648458,-1.15044089391391,0.275
1.53009291922333,-1.14232498730797,0.276
1.52796565850399,-1.13398272062116,0.277
1.52590249749767,-1.12541856695491,0.278
1.52389564370441,-1.11663720425807,0.279
1.5219371979973,-1.10764352032362,0.28
1.52001917380334,-1.09844261755487,0.281
1.5181335163825,-1.08903981747603,0.282
1.51627212216588,-1.07944066496248,0.283
1.5144268581144,-1.06965093216656,0.284
1.51258958105919,-1.0596766221151,0.285
1.51075215698555,-1.04952397195569,0.286
1.50890648022196,-1.03919945582907,0.287
1.50704449249677,-1.02870978734604,0.288
1.50515820182493,-1.01806192164779,0.289
1.50323970118807,-1.00726305702953,0.29
1.50128118697155,-0.996320636108237,0.291
1.49927497712297,-0.985242346516017,0.292
1.49721352899705,-0.974036121101878,0.293
1.49508945685281,-0.962710137625579,0.294
1.49289554896959,-0.951272817928321,0.295
1.49062478434953,-0.939732826566254,0.296
1.48827034897496,-0.928099068893867,0.297
1.48582565159006,-0.916380688585614,0.298
1.48328433897746,-0.904587064585355,0.299
1.48064031070127,-0.89272780747449,0.3
1.47788773328943,-0.880812755250995,0.301
1.47502105382918,-0.868851968512918,0.302
1.47203501295102,-0.856855725041283,0.303
1.46892465717755,-0.844834513778746,0.304
1.46568535061503,-0.832799028201786,0.305
1.46231278596676,-0.820760159085647,0.306
1.45880299484902,-0.808728986662714,0.307
1.45515235739122,-0.796716772176465,0.308
1.45135761110403,-0.784734948834632,0.309
1.44741585900009,-0.772795112166677,0.31
1.44332457695388,-0.760909009792166,0.311
1.4390816202885,-0.74908853060813,0.312
1.43468522957886,-0.737345693404933,0.313
1.43013403566221,-0.725692634921691,0.314
1.42542706384853,-0.714141597353691,0.315
1.42056373732476,-0.702704915325718,0.316
1.4155438797486,-0.691395002346636,0.317
1.41036771702901,-0.680224336761938,0.318
1.4050358782921,-0.669205447222362,0.319
1.39954939603275,-0.658350897688043,0.32
1.39390970545375,-0.647673271988952,0.321
1.38811864299593,-0.637185157963661,0.322
1.38217844406392,-0.626899131199745,0.323
1.37609173995423,-0.616827738400286,0.324
1.36986155399326,-0.60698348040216,0.325
1.3634912968947,-0.597378794872851,0.326
1.35698476134712,-0.588026038713646,0.327
1.35034611584371,-0.578937470198047,0.328
1.34357989776805,-0.570125230875228,0.329
1.33669100575047,-0.561601327269244,0.33
1.3296846913115,-0.553377612405569,0.331
1.32256654980971,-0.545465767197323,0.332
1.31534251071274,-0.537877281724261,0.333
1.30801882721148,-0.530623436438288,0.334
1.3006020651984,-0.523715283329834,0.335
1.29309909163226,-0.517163627089964,0.336
1.28551706231247,-0.510979006303567,0.337
1.27786340908732,-0.505171674709339,0.338
1.27014582652133,-0.499751582562618,0.339
1.26237225804785,-0.494728358137353,0.34
1.25455088163388,-0.490111289403685,0.341
1.24669009498505,-0.485909305917692,0.342
1.23879850031904,-0.482130960959906,0.343
1.23088488873696,-0.478784413959131,0.344
1.22295822422243,-0.475877413237982,0.345
1.21502762729881,-0.473417279116352,0.346
1.2071023583756,-0.471410887408761,0.347
1.19919180081538,-0.469864653351149,0.348
1.19130544375321,-0.468784515992286,0.349
1.18345286470058,-0.468175923084441,0.35
1.17564371196627,-0.468043816507406,0.351
1.16788768692706,-0.468392618259282,0.352
1.16019452618066,-0.469226217046746,0.353
1.15257398361425,-0.470547955506717,0.354
1.14503581242109,-0.472360618090455,0.355
1.13758974709849,-0.474666419640235,0.356
1.13024548545967,-0.477466994687697,0.357
1.12301267069237,-0.480763387501932,0.358
1.11590087349652,-0.484556042914256,0.359
1.10891957433321,-0.488844797945374,0.36
1.10207814581692,-0.49362887425946,0.361
1.09538583528229,-0.498906871468323,0.362
1.08885174755666,-0.504676761307486,0.363
1.08248482796885,-0.510935882704596,0.364
1.07629384562418,-0.517680937759112,0.365
1.07028737697521,-0.524907988650704,0.366
1.06447378971694,-0.532612455492257,0.367
1.0588612270345,-0.540789115141769,0.368
1.0534575922307,-0.549432100985783,0.369
1.04827053376007,-0.558534903705354,0.37
1.04330743069491,-0.568090373033813,0.371
1.03857537864837,-0.578090720513901,0.372
1.03408117617837,-0.58852752326003,0.373
1.0298313116954,-0.599391728729715,0.374
1.02583195089614,-0.610673660506369,0.375
1.02208892474383,-0.622363025093858,0.376
1.01860771801537,-0.63444891972139,0.377
1.0153934584339,-0.646919841155473,0.378
1.01245090640454,-0.659763695513824,0.379
1.0097844453699,-0.672967809074285,0.38
1.00739807280073,-0.686518940069962,0.381
1.0052953918359,-0.700403291459945,0.382
1.00347960358471,-0.714606524663173,0.383
1.00195350010334,-0.729113774241177,0.384
1.00071945805595,-0.743909663513637,0.385
0.999779433069687,-0.758978321088924,0.386
0.999134954791789,-0.774303398290036,0.387
0.99878712265533,-0.789868087454613,0.388
0.998736602359296,-0.805655141086034,0.389
0.998983623067115,-0.82164689183091,0.39
0.999527975326638,-0.83782527325669,0.391
1.00036900971323,-0.854171841401506,0.392
1.0015056361964,-0.870667797066825,0.393
1.00293632422912,-0.887294008822018,0.394
1.00465910355772,-0.904031036688475,0.395
1.00667156574902,-0.920859156469524,0.396
1.00897086643019,-0.937758384691086,0.397
1.01155372823546,-0.954708504116692,0.398
1.01441644445274,-0.971689089799295,0.399
1.01755488336206,-0.988679535631155,0.4
1.02096449325644,-1.00565908135198,0.401
1.02464030813474,-1.02260683997448,0.402
1.02857695405506,-1.03950182558556,0.403
1.03276865613593,-1.05632298148054,0.404
1.03720924619171,-1.07304920858682,0.405
1.04189217098741,-1.08965939413294,0.406
1.04681050109736,-1.10613244051812,0.407
1.05195694035102,-1.12244729433692,0.408
1.05732383584834,-1.13858297551305,0.409
1.06290318852632,-1.15451860649611,0.41
1.06868666425741,-1.17023344147457,0.411
1.07466560545969,-1.18570689555819,0.412
1.08083104319799,-1.20091857388272,0.413
1.08717370975428,-1.21584830058988,0.414
1.09368405164518,-1.23047614763553,0.415
1.10035224306362,-1.2447824633789,0.416
1.10716819972115,-1.25874790090621,0.417
1.11412159306691,-1.27235344604198,0.418
1.12120186485859,-1.28558044500195,0.419
1.12839824206054,-1.2984106316417,0.42
1.13569975204339,-1.31082615425579,0.421
1.14309523805965,-1.32280960188273,0.422
1.15057337496894,-1.33434403007179,0.423
1.15812268518665,-1.34541298606839,0.424
1.16573155482928,-1.35600053337578,0.425
1.1733882500299,-1.36609127565135,0.426
1.18108093339658,-1.37567037989736,0.427
1.18879768058698,-1.38472359890638,0.428
1.19652649697206,-1.39323729292344,0.429
1.20425533436184,-1.40119845048762,0.43
1.21197210776632,-1.40859470841741,0.431
1.21966471216481,-1.4154143709054,0.432
1.22732103925678,-1.42164642768919,0.433
1.23492899416795,-1.4272805712671,0.434
1.24247651208532,-1.43230721312849,0.435
1.24995157479512,-1.43671749897036,0.436
1.25734222709811,-1.44050332287343,0.437
1.26463659307695,-1.44365734041247,0.438
1.27182289219086,-1.44617298067764,0.439
1.278889455173,-1.44804445718508,0.44
1.28582473970685,-1.44926677765715,0.441
1.29261734585808,-1.44983575265419,0.442
1.29925603123907,-1.44974800304194,0.443
1.30572972588402,-1.44900096628035,0.444
1.31202754681279,-1.44759290152174,0.445
1.31813881226272,-1.44552289350802,0.446
1.32405305556814,-1.4427908552588,0.447
1.32976003866801,-1.43939752954418,0.448
1.33524976522291,-1.43534448913807,0.449
1.34051249332342,-1.43063413584981,0.45
1.34553874777272,-1.42526969833408,0.451
1.35031933192681,-1.41925522868093,0.452
1.35484533907721,-1.41259559778992,0.453
1.35910816336102,-1.40529648953434,0.454
1.36309951018494,-1.39736439372349,0.455
1.36681140615002,-1.38880659787307,0.456
1.37023620846548,-1.3796311777956,0.457
1.37336661384028,-1.36984698702487,0.458
1.37619566684243,-1.35946364509029,0.459
1.37871676771693,-1.34849152465894,0.46
1.38092367965396,-1.33694173756511,0.461
1.38281053550016,-1.32482611974872,0.462
1.38437184390677,-1.31215721512604,0.463
1.38560249490905,-1.29894825841796,0.464
1.3864977649329,-1.28521315696239,0.465
1.38705332122504,-1.27096647153963,0.466
1.38726522570445,-1.25622339624059,0.467
1.38712993823352,-1.24099973740977,0.468
1.3866443193084,-1.22531189169624,0.469
1.38580563216888,-1.20917682324718,0.47
1.38461154432932,-1.1926120400803,0.471
1.38306012853262,-1.17563556967244,0.472
1.38114986313076,-1.15826593380308,0.473
1.37887963189558,-1.14052212269277,0.474
1.37624872326512,-1.12242356847737,0.475
1.37325682903112,-1.10399011806039,0.476
1.36990404247441,-1.08524200538628,0.477
1.36619085595569,-1.06619982317894,0.478
1.36211815797003,-1.04688449419002,0.479
1.35768722967409,-1.02731724200275,0.48
1.35289974089605,-1.00751956143746,0.481
1.34775774563871,-0.987513188605706,0.482
1.34226367708712,-0.967320070660285,0.483
