Drag (N),Lift (N),Time (s)
-0.251827632069877,0.0130528858195882,0
-0.22365298932128,-0.0221851183196082,0.00100401606425703
-0.195004198762889,-0.0585674638182865,0.00200803212851406
-0.166006278023439,-0.0960527522873267,0.00301204819277108
-0.136727673639983,-0.134579931936757,0.00401606425702811
-0.107157701093674,-0.174113628447235,0.00502008032128514
-0.0773744496049055,-0.214589283362758,0.00602409638554217
-0.0474793512448493,-0.255890359600511,0.0070281124497992
-0.0175197650833169,-0.29792695332161,0.00803212851405622
0.0124984477525612,-0.340616010983274,0.00903614457831325
0.0425080014440301,-0.383885003539604,0.0100401606425703
0.0724265909540409,-0.427668063586924,0.0110441767068273
0.102199940914656,-0.471841757989996,0.0120481927710843
0.131748860025279,-0.516327104230878,0.0130522088353414
0.161071827918024,-0.561027386418563,0.0140562248995984
0.190076982719014,-0.605831159816013,0.0150602409638554
0.218732747812349,-0.650655997197675,0.0160642570281124
0.247003698308746,-0.695404562488978,0.0170682730923695
0.274811034540584,-0.740009811072209,0.0180722891566265
0.302104068387811,-0.784388180587391,0.0190763052208835
0.328844871122268,-0.828436241673554,0.0200803212851406
0.354992125390077,-0.872083895805477,0.0210843373493976
0.380512186303973,-0.915229322222952,0.0220883534136546
0.405279798617886,-0.957767252308741,0.0230923694779116
0.429275820420899,-0.999622695159867,0.0240963855421687
0.452507081240209,-1.04066907163793,0.0251004016064257
0.474855131356795,-1.08087962971983,0.0261044176706827
0.496320366505914,-1.12019615753623,0.0271084337349398
0.516859575306354,-1.15848477900297,0.0281124497991968
0.536525940857815,-1.19571647393004,0.0291164658634538
0.555243555215866,-1.23184204003423,0.0301204819277108
0.573047723397641,-1.26674934874914,0.0311244979919679
0.589901648528731,-1.30047637189956,0.0321285140562249
0.605891359433418,-1.33295457853532,0.0331325301204819
0.621003445703002,-1.36413559111184,0.034136546184739
0.635209781220204,-1.39404082441242,0.035140562248996
0.648572002409366,-1.42264205567915,0.036144578313253
0.661183129782655,-1.4498768821024,0.03714859437751
0.672965434711401,-1.47576764879446,0.0381526104417671
0.684028763014404,-1.50034476016281,0.0391566265060241
0.694414795580372,-1.52346587815927,0.0401606425702811
0.704030961649332,-1.54530041616798,0.0411646586345382
0.712952075807856,-1.56588046109067,0.0421686746987952
0.721220166492723,-1.58513338743749,0.0431726907630522
0.728819855273407,-1.60314325353145,0.0441767068273092
0.73582760227248,-1.61990677655822,0.0451807228915663
0.742244768632364,-1.63545810808774,0.0461847389558233
0.74807357402952,-1.64987611592607,0.0471887550200803
0.753362611635858,-1.66313248027282,0.0481927710843374
0.758178438071043,-1.67530944751814,0.0491967871485944
0.762528797902106,-1.68645215960793,0.0502008032128514
0.766429775280163,-1.69658087213675,0.0512048192771084
0.769975982399662,-1.70579214388832,0.0522088353413655
0.773197673947452,-1.71415194353389,0.0532128514056225
0.776150494857506,-1.72165047373295,0.0542168674698795
0.778886483523498,-1.72843425329208,0.0552208835341365
0.781458722567729,-1.7345688180175,0.0562248995983936
0.783884522763767,-1.74010841918225,0.0572289156626506
0.786272240486142,-1.74514006348447,0.0582329317269076
0.788701112161306,-1.74968441366372,0.0592369477911647
0.791148394653916,-1.75379957090011,0.0602409638554217
0.793678350184246,-1.7575872613979,0.0612449799196787
0.796336048717193,-1.76115988737796,0.0622489959839357
0.799195547390678,-1.76454464728871,0.0632530120481928
0.802261962146002,-1.76779905135661,0.0642570281124498
0.805618250488764,-1.77095069527118,0.0652610441767068
0.809302823953476,-1.7740112788513,0.0662650602409639
0.813337294020652,-1.77709460245973,0.0672690763052209
0.817764276351669,-1.78032914202229,0.0682730923694779
0.82262032038336,-1.78366818757192,0.0692771084337349
0.827969021202703,-1.78723357362232,0.070281124497992
0.833817490757636,-1.79109158239401,0.071285140562249
0.840207344716405,-1.79517884483985,0.072289156626506
0.847210226743692,-1.79961092648462,0.073293172690763
0.854918341679412,-1.80446821342748,0.0742971887550201
0.863345108824342,-1.80967997879609,0.0753012048192771
0.872476672310472,-1.81530241152214,0.0763052208835341
0.882384595109784,-1.82138910209888,0.0773092369477912
0.893087440720796,-1.82787896441955,0.0783132530120482
0.90462374928922,-1.83478853864836,0.0793172690763052
0.916977115704097,-1.84216664491197,0.0803212851405622
0.930182052291267,-1.85002082756437,0.0813253012048193
0.944303378333127,-1.8584409018172,0.0823293172690763
0.959328393925604,-1.86744593057793,0.0833333333333333
0.975281225512956,-1.87700641425258,0.0843373493975904
0.992181875271199,-1.88715577241154,0.0853413654618474
1.01001390396838,-1.89792204371407,0.0863453815261044
1.02881684359241,-1.90931627775661,0.0873493975903614
1.04858346057027,-1.92137005855973,0.0883534136546185
1.06931321492578,-1.93410845523168,0.0893574297188755
1.09099460387414,-1.94753830329269,0.0903614457831325
1.11365434722139,-1.96167331304583,0.0913654618473896
1.13726168407107,-1.97651942453305,0.0923694779116466
1.16180493959284,-1.99205150862015,0.0933734939759036
1.18726367472617,-2.00825444321898,0.0943775100401606
1.21362947410655,-2.02517130897011,0.0953815261044177
1.24088160599541,-2.04274293886644,0.0963855421686747
1.26899542933502,-2.06099999615671,0.0973895582329317
1.2979276116956,-2.07994603458401,0.0983935742971888
1.32763766251115,-2.09951401766956,0.0993975903614458
1.35812516069203,-2.11970316904687,0.100401606425703
1.38934578893229,-2.14047535838968,0.10140562248996
1.42124375106433,-2.16178764656524,0.102409638554217
1.453749031849,-2.18359741797026,0.103413654618474
1.48683457679278,-2.20586509594628,0.104417670682731
1.52043999517921,-2.22854824797659,0.105421686746988
1.55442081470954,-2.25156949454487,0.106425702811245
1.58877441089994,-2.27490112811827,0.107429718875502
1.62344330486241,-2.29854130729441,0.108433734939759
1.65837666435699,-2.32238581226457,0.109437751004016
1.69343958864987,-2.3464414289836,0.110441767068273
1.72860996286126,-2.37071067076364,0.11144578313253
1.76382870665992,-2.39508143038747,0.112449799196787
1.79898904074939,-2.41952446620014,0.113453815261044
1.83407024000206,-2.44396726242531,0.114457831325301
1.86897230463768,-2.46838823836929,0.115461847389558
1.90364546986046,-2.49273438708168,0.116465863453815
1.93802115784527,-2.51695890099092,0.117469879518072
1.97204478846066,-2.54095860879791,0.118473895582329
2.00565462143065,-2.5646729984914,0.119477911646586
2.03878693490647,-2.58807707842104,0.120481927710843
2.07138100900471,-2.61109147431847,0.1214859437751
2.10333376965032,-2.6336887446358,0.122489959839357
2.13457526976349,-2.65587488489763,0.123493975903614
2.16509901305433,-2.67753298955663,0.124497991967871
2.19485036145041,-2.69862011853028,0.125502008032129
2.22367683573882,-2.71914233493996,0.126506024096386
2.25157179593917,-2.73901251264461,0.127510040160643
2.27849094301732,-2.75816912268791,0.1285140562249
2.30432525968881,-2.77668948250868,0.129518072289157
2.32900700150854,-2.79448855084168,0.130522088353414
2.35253132456388,-2.81150414385012,0.131526104417671
2.37477345772904,-2.82779983263414,0.132530120481928
2.39572623039335,-2.84321200375646,0.133534136546185
2.41528107716832,-2.85779132355249,0.134538152610442
2.43344117383763,-2.87150459993652,0.135542168674699
2.45023257658804,-2.88429573248856,0.136546184738956
2.46559267011301,-2.89618032354161,0.137550200803213
2.47942810445604,-2.90718489613044,0.13855421686747
2.49183821322245,-2.91727828927117,0.139558232931727
2.50275476125398,-2.92645697041637,0.140562248995984
2.51218772097733,-2.93484382156271,0.141566265060241
2.52025553494246,-2.94230704711657,0.142570281124498
2.52702784161954,-2.94886464425354,0.143574297188755
2.53246894256226,-2.95462129664525,0.144578313253012
2.53669348702874,-2.95954959118104,0.145582329317269
2.53974824122349,-2.96372559603856,0.146586345381526
2.54172780445239,-2.96719227992814,0.147590361445783
2.542737383285,-2.96992222710671,0.14859437751004
2.54286865189238,-2.97201910392604,0.149598393574297
2.54216357317337,-2.97350070820768,0.150602409638554
2.54072877903814,-2.97444877675068,0.151606425702811
2.53872275030201,-2.974915284478,0.152610441767068
2.53621081117628,-2.97494732108386,0.153614457831325
2.5333214589865,-2.97457991980923,0.154618473895582
2.53017119758008,-2.97393223095261,0.155622489959839
2.52687012330825,-2.97303072980208,0.156626506024096
2.52356719990728,-2.97194290173996,0.157630522088353
2.5204307602476,-2.97070392348418,0.15863453815261
2.51751037711041,-2.96932931665462,0.159638554216867
2.51490227524963,-2.96800653356564,0.160642570281124
2.51279652688797,-2.9667262270438,0.161646586345382
2.51127948156328,-2.96553564688032,0.162650602409639
2.51047638624874,-2.96444974992571,0.163654618473896
2.51044725178994,-2.96351043679737,0.164658634538153
2.51133738665384,-2.96272402282242,0.16566265060241
2.51323718933179,-2.96216067398955,0.166666666666667
2.5162062065976,-2.96183617686176,0.167670682730924
2.52031003441422,-2.96175284070018,0.168674698795181
2.52563847978658,-2.96191611085963,0.169678714859438
2.53228113955468,-2.96234328867611,0.170682730923695
2.54027599495094,-2.96304972198049,0.171686746987952
2.54974414240811,-2.96394355466935,0.172690763052209
2.56072493951268,-2.96509211025067,0.173694779116466
2.57323671701208,-2.9664370342194,0.174698795180723
2.58731726204942,-2.96796809985508,0.17570281124498
2.60302178712704,-2.969696916922,0.176706827309237
2.62038253305943,-2.97159644807044,0.177710843373494
2.63939333064271,-2.97358531383081,0.178714859437751
2.66003670151789,-2.97567710621652,0.179718875502008
2.68230908091636,-2.97787148558514,0.180722891566265
2.7062247015046,-2.98009763462712,0.181726907630522
2.7317210778457,-2.98230619857471,0.182730923694779
2.75866160303894,-2.98435912081039,0.183734939759036
2.78700711502126,-2.986224477648,0.184738955823293
2.81669051080772,-2.9878606927602,0.18574297188755
2.8476051841314,-2.98922437498749,0.186746987951807
2.87963807943188,-2.99024113463966,0.187751004016064
2.91265569090191,-2.99084019037163,0.188755020080321
2.94661854569695,-2.99097544502072,0.189759036144578
2.98136696478425,-2.99063383860944,0.190763052208835
3.01682484006553,-2.98970228920336,0.191767068273092
3.05288464787509,-2.98811837473977,0.192771084337349
3.08945875965807,-2.98585112040391,0.193775100401606
3.12643577077047,-2.98286268637628,0.194779116465863
3.16371887136942,-2.97910154144401,0.19578313253012
3.2011788986262,-2.97451380240456,0.196787148594378
3.23873432831404,-2.96915531389178,0.197791164658635
3.27626866431861,-2.96294945268818,0.198795180722892
3.31370077837368,-2.95585872911949,0.199799196787149
3.3509136670749,-2.94789749513462,0.200803212851406
3.38777658942684,-2.93908020152676,0.201807228915663
3.42420140572451,-2.92931707743177,0.20281124497992
3.46005845648288,-2.91864569724886,0.203815261044177
3.49520062142256,-2.90711752947762,0.204819277108434
3.52951541880997,-2.89467698397903,0.205823293172691
3.56292691667011,-2.88134751116259,0.206827309236948
3.59533750759025,-2.86719309688834,0.207831325301205
3.62666829391725,-2.85221368663468,0.208835341365462
3.65683278683647,-2.83638804355672,0.209839357429719
3.68574684839191,-2.81978061277861,0.210843373493976
3.71342592134835,-2.8024712324694,0.211847389558233
3.73980192739193,-2.78439502652555,0.21285140562249
3.76488722273299,-2.76565491153552,0.213855421686747
3.7887101389713,-2.74635857619117,0.214859437751004
3.81119733175933,-2.72659188978478,0.215863453815261
3.83240020913487,-2.70641221997211,0.216867469879518
3.85234638620758,-2.68592306468836,0.217871485943775
3.8710093377311,-2.66520286664791,0.218875502008032
3.88840846168999,-2.64441985217544,0.219879518072289
3.9045566173929,-2.62367416570956,0.220883534136546
3.91946377351816,-2.60296325773075,0.221887550200803
3.93318934702959,-2.58241026216353,0.22289156626506
3.94578883155825,-2.56208230887546,0.223895582329317
3.95727754238469,-2.54200639117681,0.224899598393574
3.96767875988954,-2.52231200398068,0.225903614457831
3.97703300474769,-2.50311859240714,0.226907630522088
3.98549823465272,-2.48442704628271,0.227911646586345
3.99313869012698,-2.46628773925677,0.228915662650602
4.00002514505418,-2.44884743384097,0.229919678714859
4.0062830673926,-2.43203919977256,0.230923694779116
4.01199216890737,-2.41593333589834,0.231927710843373
4.01721844751114,-2.40062148673035,0.232931726907631
4.02208828946458,-2.38605044509106,0.233935742971888
4.02662994185072,-2.37232684008687,0.234939759036145
4.03098731887482,-2.3594100608913,0.235943775100402
4.03515077610734,-2.34734618390343,0.236947791164659
4.03909636499784,-2.3361161624737,0.237951807228916
4.04290176476431,-2.32567911566088,0.238955823293173
4.04664758206651,-2.31604347561201,0.23995983935743
4.05021002243421,-2.30716910988665,0.240963855421687
4.05363951068168,-2.29907438860729,0.241967871485944
4.05696747740999,-2.2916682291513,0.242971887550201
4.06005378594385,-2.28497694814382,0.243975903614458
4.06280897240343,-2.27898413026423,0.244979919678715
4.06530916243172,-2.27360288563043,0.245983935742972
4.06746739690856,-2.26879221283435,0.246987951807229
4.06923726474828,-2.26456377851112,0.247991967871486
4.07056065602263,-2.26078421200545,0.248995983935743
4.07138008971613,-2.25742315259593,0.25
4.07163712372521,-2.25442574636663,0.251004016064257
4.07133012718362,-2.25171924051494,0.252008032128514
4.07040607520064,-2.24915956219283,0.253012048192771
4.06870726210556,-2.24672742328492,0.254016064257028
4.06618797892972,-2.24427065912009,0.255020080321285
4.0628069663672,-2.24171704701372,0.256024096385542
4.0584250965266,-2.23901597606772,0.257028112449799
4.05293906592949,-2.23597036111007,0.258032128514056
4.04627313738592,-2.23247734318695,0.259036144578313
4.0382926199199,-2.22851519510267,0.26004016064257
4.02892634510873,-2.22397712757721,0.261044176706827
4.01806781373647,-2.2186818053912,0.262048192771084
4.00564652830334,-2.21257573796078,0.263052208835341
3.99159335230942,-2.20557420829019,0.264056224899598
3.97581790789625,-2.19763850264805,0.265060240963855
3.95831922825626,-2.18867933751216,0.266064257028112
3.93899455281851,-2.17874298160422,0.267068273092369
3.91782657033681,-2.16770483837034,0.268072289156627
3.89477431593664,-2.15549707203609,0.269076305220884
3.86980280410589,-2.14211851871531,0.270080321285141
3.84287798990145,-2.12747167987603,0.271084337349398
3.8139479359953,-2.11152128618148,0.272088353413655
3.78302980846369,-2.09415592532302,0.273092369477912
3.74998831547099,-2.07547979385887,0.274096385542169
3.71486927704459,-2.05541742961591,0.275100401606426
3.6776477898763,-2.03394734779955,0.276104417670683
3.63825094572542,-2.01109506944777,0.27710843373494
3.59672084623348,-1.98685398054747,0.278112449799197
3.55308158578381,-1.96120675830941,0.279116465863454
3.50737928488122,-1.93419792243275,0.280120481927711
3.45969263012337,-1.90586510879679,0.281124497991968
3.41008028144251,-1.87617768293153,0.282128514056225
3.3586001471867,-1.84519502085011,0.283132530120482
3.30539122617279,-1.81297344309615,0.284136546184739
3.25065513869341,-1.77957263708752,0.285140562248996
3.19447252289727,-1.74500144694744,0.286144578313253
3.13698444579846,-1.7093737946598,0.28714859437751
3.07838772778677,-1.67272011866952,0.288152610441767
3.01888812974892,-1.63504520800279,0.289156626506024
2.95868069380534,-1.59642403699948,0.290160642570281
2.89781548978747,-1.5569187428798,0.291164658634538
2.83648269404383,-1.51652562884576,0.292168674698795
2.77480884301664,-1.47533234401742,0.293172690763052
2.71293914414159,-1.43342453226237,0.294176706827309
2.65094126748991,-1.39081420488036,0.295180722891566
2.58894979989021,-1.34749983832977,0.296184738955823
2.5270704589375,-1.30361881437033,0.29718875502008
2.46546015498514,-1.25918916263397,0.298192771084337
2.40418884849365,-1.21411875791146,0.299196787148594
2.34335847377321,-1.16856537364197,0.300200803212851
2.28303421646408,-1.12257775705748,0.301204819277108
2.22336989597871,-1.07617751989499,0.302208835341365
2.16451701997228,-1.02936279376533,0.303212851405622
2.10655163059792,-0.982325829604822,0.30421686746988
2.04963976349754,-0.935076998186908,0.305220883534137
1.99390625811304,-0.887572845816949,0.306224899598394
1.93950530355255,-0.840033167179941,0.307228915662651
1.88648791718244,-0.792446129475895,0.308232931726908
1.83499452169544,-0.744802590927823,0.309236947791165
1.7850331778236,-0.697168208886262,0.310240963855422
1.73666176999857,-0.649658274716501,0.311244979919679
1.68990341404489,-0.602272283909425,0.312248995983936
1.64473843352602,-0.554970988898222,0.313253012048193
1.60111564911475,-0.507867047882739,0.31425702811245
1.55896282108813,-0.460946906056104,0.315261044176707
1.51818542334391,-0.414144509246255,0.316265060240964
1.47875677723693,-0.367466946833827,0.317269076305221
1.44057004822848,-0.3208825988502,0.318273092369478
1.40353711547728,-0.274346107896733,0.319277108433735
1.36764929562481,-0.22788062551421,0.320281124497992
1.3327868786287,-0.181427948032259,0.321285140562249
1.29894745942658,-0.134978657549027,0.322289156626506
1.26610512981808,-0.0885982988552979,0.323293172690763
1.23418095380597,-0.0422528199549594,0.32429718875502
1.20314177091056,0.00407870104485142,0.325301204819277
1.17300655091213,0.0503038917500899,0.326305220883534
1.14373262267396,0.0963970079343454,0.327309236947791
1.11524713883893,0.142437770523793,0.328313253012048
1.0874943676177,0.188281190441159,0.329317269076305
1.06044712093339,0.233904981175291,0.330321285140562
1.03399930181131,0.279393187519605,0.331325301204819
1.00804423119766,0.32458251913644,0.332329317269076
0.982569158631,0.369442482003696,0.333333333333333
0.957492386970933,0.413980714048285,0.33433734939759
0.932764421916816,0.458058966775203,0.335341365461847
0.908380707609875,0.501620213238871,0.336345381526104
0.884229770513578,0.544652215456575,0.337349397590361
0.860350930572976,0.58708670002275,0.338353413654618
0.836770963111574,0.6288437168237,0.339357429718876
0.813418509506025,0.669888415157216,0.340361445783133
0.790297424743085,0.710228025168712,0.34136546184739
0.767546417845911,0.749728462163414,0.342369477911647
0.74510505477553,0.788474024251274,0.343373493975904
0.722934202743095,0.826405679312691,0.344377510040161
0.701180349795615,0.863499939355408,0.345381526104418
0.679836500754538,0.899830149260985,0.346385542168675
0.658802841210675,0.935376965222352,0.347389558232932
0.63809244344854,0.970093265584298,0.348393574297189
0.617691128983381,1.00412483714888,0.349397590361446
0.597523689628951,1.03748595551267,0.350401606425703
0.577556005556176,1.07011303595277,0.35140562248996
0.557678090845511,1.10204320250924,0.352409638554217
0.537793227712765,1.13331264521687,0.353413654618474
0.517848406401493,1.16383770429506,0.354417670682731
0.497870486049178,1.1936800462642,0.355421686746988
0.477768146703161,1.22277204281798,0.356425702811245
0.457394913685309,1.2511263427169,0.357429718875502
0.436829658699008,1.27882152531513,0.358433734939759
0.4160606545347,1.30571724638597,0.359437751004016
0.39501493780479,1.33182313212658,0.360441767068273
0.373711251304023,1.35717508842802,0.36144578313253
0.35210718329689,1.3816682006385,0.362449799196787
0.330285145743683,1.40533097205907,0.363453815261044
0.30818697595878,1.42814307231451,0.364457831325301
0.285847658174387,1.45008127735035,0.365461847389558
0.263299272228111,1.47119466641695,0.366465863453815
0.240517844591473,1.4914382715087,0.367469879518072
