Drag (N),Lift (N),Time (s)
-0.140765569097562,0.0182381822654446,0
-0.106115998473685,-0.0296037952813038,0.0009765625
-0.070941409659088,-0.0774497263960916,0.001953125
-0.0353112022597972,-0.125184423293953,0.0029296875
0.000685601774859371,-0.172597556297499,0.00390625
0.036977300122141,-0.21957120465654,0.0048828125
0.0734469180489719,-0.265954411181668,0.005859375
0.110018662765248,-0.311638158924858,0.0068359375
0.146621685425037,-0.356453220558228,0.0078125
0.183138401321713,-0.400284087602582,0.0087890625
0.21953721516671,-0.443123172640342,0.009765625
0.255749085595302,-0.484791035399536,0.0107421875
0.291638332386197,-0.525179282188622,0.01171875
0.327173915168159,-0.564260211766088,0.0126953125
0.362279355381896,-0.601927504739946,0.013671875
0.396820115674796,-0.638085351828864,0.0146484375
0.430796316671293,-0.672712742708455,0.015625
0.464140694248799,-0.705714348172335,0.0166015625
0.496783002940241,-0.737023361129586,0.017578125
0.528731811143464,-0.766624290105545,0.0185546875
0.55997325906559,-0.794493176852427,0.01953125
0.5904110562811,-0.82062713326664,0.0205078125
0.62002350725747,-0.845015935541566,0.021484375
0.648795119017265,-0.867694337454615,0.0224609375
0.676699122899242,-0.888654319939247,0.0234375
0.703744245586863,-0.907935413616463,0.0244140625
0.729884971441786,-0.925573465881887,0.025390625
0.755152248440928,-0.941653327392145,0.0263671875
0.779555206720449,-0.956203857736889,0.02734375
0.803096861436924,-0.969249168556122,0.0283203125
0.825751727906481,-0.980851004435165,0.029296875
0.847581371491231,-0.991122004464262,0.0302734375
0.868551508876819,-1.00004703606745,0.03125
0.888709089634357,-1.00777452907892,0.0322265625
0.908069515838971,-1.01435269464258,0.033203125
0.926704321365978,-1.01991357176852,0.0341796875
0.944606934060225,-1.02451084113348,0.03515625
0.961790190379126,-1.02825506804313,0.0361328125
0.978316495720512,-1.03124171469789,0.037109375
0.994261757361054,-1.03357321324917,0.0380859375
1.00963980173957,-1.03532124337175,0.0390625
1.02447356154191,-1.03660253272284,0.0400390625
1.03883614104836,-1.03749173530514,0.041015625
1.05281870903816,-1.03802794743485,0.0419921875
1.06646899667819,-1.03839846001409,0.04296875
1.07981888947281,-1.03860817120131,0.0439453125
1.09291249937556,-1.03878489846481,0.044921875
1.10579648676765,-1.03895195205398,0.0458984375
1.11849114070072,-1.0391737386112,0.046875
1.13103682650744,-1.03949135335391,0.0478515625
1.14348257974897,-1.03999008413912,0.048828125
1.15584455171611,-1.04066871916157,0.0498046875
1.16815709132739,-1.04164873048082,0.05078125
1.18040768055957,-1.04289350402535,0.0517578125
1.19261322409276,-1.04446496452599,0.052734375
1.20479493554368,-1.04641314801675,0.0537109375
1.2169660652176,-1.04878619231352,0.0546875
1.22909159052944,-1.05151377337691,0.0556640625
1.24118146946976,-1.05469933712364,0.056640625
1.25326471539281,-1.05831009205736,0.0576171875
1.26528905799664,-1.06233624861822,0.05859375
1.2772420829605,-1.06680971580548,0.0595703125
1.28913317343944,-1.07164894169058,0.060546875
1.30095842084662,-1.07684383450358,0.0615234375
1.31266699133852,-1.08245790114448,0.0625
1.32418009458577,-1.08839901093623,0.0634765625
1.33555480943589,-1.09462230575002,0.064453125
1.3467169842676,-1.10113518445448,0.0654296875
1.35765539860862,-1.10788860952341,0.06640625
1.36830929582696,-1.1147854719326,0.0673828125
1.37867476815192,-1.12186536922455,0.068359375
1.3886736908126,-1.12907157705336,0.0693359375
1.39830346826456,-1.13639097596513,0.0703125
1.40752473215989,-1.14376792894443,0.0712890625
1.41624216120732,-1.1511395027924,0.072265625
1.42446603916803,-1.15842288044237,0.0732421875
1.43214744569524,-1.16565450867626,0.07421875
1.43922626941631,-1.17272495263881,0.0751953125
1.44571534788469,-1.17961087893802,0.076171875
1.45159554435827,-1.18634310979087,0.0771484375
1.45680253365042,-1.19282923700389,0.078125
1.46137725653422,-1.1990854363194,0.0791015625
1.46524082377167,-1.20502222292183,0.080078125
1.46842454790206,-1.21067082394862,0.0810546875
1.47098584608184,-1.2160193331816,0.08203125
1.47287788478055,-1.22102225914148,0.0830078125
1.4741144165359,-1.22567290463452,0.083984375
1.47475165116893,-1.22993900311898,0.0849609375
1.47479978100181,-1.23382213031879,0.0859375
1.47424582681668,-1.23731723075632,0.0869140625
1.47318412764135,-1.24042717115713,0.087890625
1.47165625060061,-1.24312940506459,0.0888671875
1.46971852089137,-1.24544287254935,0.08984375
1.46746445035221,-1.24731226713335,0.0908203125
1.46496578158913,-1.24874520182787,0.091796875
1.46227258328097,-1.2497421940774,0.0927734375
1.45950924733876,-1.25033796863667,0.09375
1.45677519684183,-1.25048960294962,0.0947265625
1.45417410387358,-1.2502247979787,0.095703125
1.45180426411388,-1.24957941905622,0.0966796875
1.44978049206264,-1.24854626337648,0.09765625
1.44818408372889,-1.24716119834456,0.0986328125
1.44712211481983,-1.2454708839107,0.099609375
1.44678919836854,-1.24352915339892,0.1005859375
1.44724754185702,-1.24128077929572,0.1015625
1.44860313772828,-1.23880621753508,0.1025390625
1.45095123280358,-1.23610613564603,0.103515625
1.45443363011745,-1.23316807709531,0.1044921875
1.45911095352287,-1.2300261308576,0.10546875
1.46509195830011,-1.22676749400069,0.1064453125
1.47249722355118,-1.22335957751627,0.107421875
1.4814086471221,-1.21980936740457,0.1083984375
1.49191020319822,-1.21617751459599,0.109375
1.50410821040394,-1.21245362986563,0.1103515625
1.51802635225774,-1.20861484359409,0.111328125
1.53379203029931,-1.20470548817485,0.1123046875
1.55145589517985,-1.20076082921587,0.11328125
1.57106601736571,-1.19675138744339,0.1142578125
1.59267031992077,-1.19272170392186,0.115234375
1.61630342576802,-1.18869028596216,0.1162109375
1.64194745893983,-1.18464702120971,0.1171875
1.6696103093176,-1.18058085664837,0.1181640625
1.69932266839818,-1.17651078036437,0.119140625
1.73109965672366,-1.17237527729682,0.1201171875
1.76484516502432,-1.16817094034695,0.12109375
1.80052643106054,-1.1639498735376,0.1220703125
1.83807793729892,-1.15968286528964,0.123046875
1.87740976909143,-1.15537803825842,0.1240234375
1.91845219430512,-1.15093594373016,0.125
1.96106242526573,-1.14642117306464,0.1259765625
2.00516114362222,-1.14182565291819,0.126953125
2.05063430946702,-1.13713204712178,0.1279296875
2.09733390613439,-1.13236434730832,0.12890625
2.14517849810754,-1.1275031807048,0.1298828125
2.19405953547055,-1.1225259573315,0.130859375
2.24385264607442,-1.1174885633016,0.1318359375
2.29441184233882,-1.11233922468614,0.1328125
2.34561331931914,-1.10710389448056,0.1337890625
2.39736870285406,-1.10182578973115,0.134765625
2.44948322273498,-1.09643965231325,0.1357421875
2.50179423706258,-1.09101765776124,0.13671875
2.55413263359145,-1.08555512679191,0.1376953125
2.60628513700716,-1.08007298848174,0.138671875
2.65808901506167,-1.07453992417874,0.1396484375
2.70930010903424,-1.06900678746586,0.140625
2.7597015325172,-1.06342903468699,0.1416015625
2.80912840327519,-1.05783256379343,0.142578125
2.85737444909095,-1.05226274947293,0.1435546875
2.90421065582841,-1.04675164727981,0.14453125
2.9494826187274,-1.0412784320557,0.1455078125
2.9929860476371,-1.03592424843465,0.146484375
3.03454348931106,-1.03061832968506,0.1474609375
3.07397392230192,-1.02535748886711,0.1484375
3.11107035029901,-1.02018748850251,0.1494140625
3.14567352261393,-1.01514840624376,0.150390625
3.17764099396637,-1.01017236872774,0.1513671875
3.20682577948494,-1.0052990753229,0.15234375
3.23303416114685,-1.00045432204444,0.1533203125
3.25616305104704,-0.995684384078872,0.154296875
3.27608045332361,-0.990971683080075,0.1552734375
3.29257463735609,-0.986237107960372,0.15625
3.30559185349251,-0.981530718278613,0.1572265625
3.31508887639693,-0.976868590535918,0.158203125
3.32093906556856,-0.97223111288103,0.1591796875
3.32303798009522,-0.967636109364374,0.16015625
3.32140390483528,-0.963017509193024,0.1611328125
3.31607845216343,-0.958378098453323,0.162109375
3.30700377995736,-0.953777464815072,0.1630859375
3.29423878534952,-0.949155098218629,0.1640625
3.27784383223075,-0.944532386930469,0.1650390625
3.25788251971092,-0.939993744282323,0.166015625
3.23442385895106,-0.935474206756742,0.1669921875
3.20765441748214,-0.930986830363541,0.16796875
3.17768792550418,-0.926582846807975,0.1689453125
3.14466944885884,-0.922259335034576,0.169921875
3.10879628318247,-0.918066521857611,0.1708984375
3.07026342547438,-0.914002399835716,0.171875
3.02926458730753,-0.910031576766914,0.1728515625
2.98597359295839,-0.906170845513155,0.173828125
2.94053987636029,-0.902422687643137,0.1748046875
2.89320801832313,-0.898725715117261,0.17578125
2.84421372993372,-0.895080916450721,0.1767578125
2.79367113657466,-0.891410577402706,0.177734375
2.74185510026975,-0.887733395562685,0.1787109375
2.68893849626912,-0.883973632624946,0.1796875
2.63510167254919,-0.880063415145636,0.1806640625
2.58063564654859,-0.875971071878057,0.181640625
2.52573410817479,-0.871635556000035,0.1826171875
2.47057314639579,-0.86697662524397,0.18359375
2.41537863059063,-0.861953019706709,0.1845703125
2.36039229383785,-0.856519810616986,0.185546875
2.30575142213405,-0.850582758325422,0.1865234375
2.25160411513714,-0.844108664290583,0.1875
2.19813015933282,-0.837005966583455,0.1884765625
2.1454607094538,-0.829236487770652,0.189453125
2.09372073626688,-0.820717824426712,0.1904296875
2.04301386242308,-0.811366693017421,0.19140625
1.99343295301468,-0.801111393530776,0.1923828125
1.94508004891701,-0.78994018891467,0.193359375
1.89799963504795,-0.777746687246987,0.1943359375
1.85226375908724,-0.764464281573618,0.1953125
1.80795129688533,-0.750040555859087,0.1962890625
1.76514569817055,-0.734419771776527,0.197265625
1.72385014535826,-0.71756605607114,0.1982421875
1.68407888165305,-0.699357589955436,0.19921875
1.64590968431359,-0.679821347503842,0.2001953125
1.60941435124517,-0.658877588149755,0.201171875
1.57452800128327,-0.636498310228585,0.2021484375
1.54124016720497,-0.61272710415038,0.203125
1.50960128843258,-0.587454706625385,0.2041015625
1.47960162031411,-0.560604492474502,0.205078125
1.45119710509955,-0.532247250430571,0.2060546875
1.42430646772952,-0.502303483302891,0.20703125
1.39885169362743,-0.470720188323329,0.2080078125
1.37475651916212,-0.437528356749367,0.208984375
1.35199559003199,-0.402744532945411,0.2099609375
1.3303956862538,-0.366332674596955,0.2109375
1.30989544422634,-0.328259764035113,0.2119140625
1.29032814449992,-0.28855477012544,0.212890625
1.27158530958746,-0.247201259348683,0.2138671875
1.25356655628637,-0.204252326745331,0.21484375
1.23617505715874,-0.159729479611298,0.2158203125
1.21925392525812,-0.113653539151662,0.216796875
1.20268235829296,-0.0660604220845174,0.2177734375
1.1863366338339,-0.0171063356593181,0.21875
1.17022292119504,0.0331853455053439,0.2197265625
1.15421496742309,0.0847776315175375,0.220703125
1.13824281050423,0.137559400624103,0.2216796875
1.12229296871301,0.1914248810407,0.22265625
1.10626502226546,0.246231732603574,0.2236328125
1.09017033522066,0.301988369633555,0.224609375
1.07389509749041,0.358556127237704,0.2255859375
1.05739153895072,0.415828004053225,0.2265625
1.04059588697197,0.473767532514782,0.2275390625
1.02342298252981,0.53219981682715,0.228515625
1.00574601117946,0.591020626607189,0.2294921875
0.987432315725884,0.650204116237018,0.23046875
0.968384919120762,0.70963524120236,0.2314453125
0.948527949888477,0.769254089242879,0.232421875
0.927685123666963,0.829040087706447,0.2333984375
0.905834133968616,0.888827053799457,0.234375
0.88287971101791,0.948586057520745,0.2353515625
0.858788198853297,1.00822101104022,0.236328125
0.83361094792494,1.06762272029697,0.2373046875
0.807290094705402,1.1266580848769,0.23828125
0.779905900449002,1.18532033268834,0.2392578125
0.751546526820819,1.24344862822656,0.240234375
0.722197470773814,1.3009827038493,0.2412109375
0.691925180336529,1.35792220227396,0.2421875
0.660874293685521,1.41415722799909,0.2431640625
0.629054573996776,1.46957258551479,0.244140625
0.596553713966525,1.52418682000841,0.2451171875
0.563470381268047,1.57784673011393,0.24609375
0.529892269457632,1.6304497974974,0.2470703125
0.495905345027533,1.68200576028358,0.248046875
0.461643367713517,1.73242480574909,0.2490234375
0.427174278270251,1.78156794991619,0.25
0.39258018181576,1.82942222523399,0.2509765625
0.358058332866595,1.8758832244397,0.251953125
0.323704850840166,1.92090672587901,0.2529296875
0.289596596911612,1.96449449288966,0.25390625
0.255987555942138,2.00650392897293,0.2548828125
0.222922449264438,2.04688373993458,0.255859375
0.190465731964757,2.0857069601352,0.2568359375
0.158779285037971,2.12290461868259,0.2578125
0.128000049912284,2.15843464275408,0.2587890625
0.0981928922687057,2.19238717238826,0.259765625
0.0694202407682831,2.22472574020769,0.2607421875
0.0417191943979542,2.2555505034877,0.26171875
0.015140769432017,2.28489498377396,0.2626953125
-0.010353410642341,2.31280964811386,0.263671875
-0.0347157940883038,2.33946873025432,0.2646484375
-0.0579769182089511,2.36491406992993,0.265625
-0.0802420902173429,2.38926167923386,0.2666015625
-0.101542966700615,2.41269622859269,0.267578125
-0.121979909446979,2.43528322269089,0.2685546875
-0.14163987088885,2.45717594448928,0.26953125
-0.16067869986798,2.47842691115796,0.2705078125
-0.17917233254773,2.49915688851242,0.271484375
-0.197145946809625,2.51948586523589,0.2724609375
-0.214673487752701,2.539496982154,0.2734375
-0.231850927059195,2.55926327269545,0.2744140625
-0.248742938756555,2.57884715394724,0.275390625
-0.265341667065836,2.59828433330628,0.2763671875
-0.281722580336877,2.61763888560981,0.27734375
-0.297935162771925,2.63695993406731,0.2783203125
-0.314020450172695,2.65631398907145,0.279296875
-0.330100090174405,2.67570110243548,0.2802734375
-0.346174654107709,2.69513310870394,0.28125
-0.362275693671515,2.71460519091415,0.2822265625
-0.378464830180339,2.73416156998684,0.283203125
-0.394833523263493,2.75379314209663,0.2841796875
-0.411414450534152,2.77348624361205,0.28515625
-0.42816645240232,2.7932626174935,0.2861328125
-0.445177948024202,2.81307201094062,0.287109375
-0.462419745667955,2.83294305516732,0.2880859375
-0.479911092159167,2.85279737588117,0.2890625
-0.497627401592572,2.87263682425289,0.2900390625
-0.515615860815008,2.89244302712796,0.291015625
-0.533888793128775,2.91224343325263,0.2919921875
-0.552377641093129,2.93197568324061,0.29296875
-0.571086803390306,2.95167626250734,0.2939453125
-0.590073759015904,2.97131818399822,0.294921875
-0.609379206800767,2.99084955770522,0.2958984375
-0.628872994465658,3.01032833345122,0.296875
-0.648585096278862,3.02961929837422,0.2978515625
-0.668566820139813,3.04871280434043,0.298828125
-0.688845862298108,3.06759447731128,0.2998046875
-0.709331129596924,3.08627311156163,0.30078125
-0.730056703194811,3.10477218291424,0.3017578125
-0.751036242022081,3.12299092997292,0.302734375
-0.772295848473692,3.14087380287163,0.3037109375
-0.793821037959361,3.15842674860157,0.3046875
-0.815581192659997,3.17559874634891,0.3056640625
-0.837477852588639,3.19230317786218,0.306640625
-0.859494093619072,3.20848967695119,0.3076171875
-0.881630139403647,3.22415832602814,0.30859375
-0.903809899692011,3.23924055010017,0.3095703125
-0.925971318161004,3.25361533209571,0.310546875
-0.948024968938575,3.26724374854199,0.3115234375
-0.969931992180133,3.28006690207059,0.3125
-0.991627195615245,3.29204756674458,0.3134765625
-1.01309745705401,3.30309543088949,0.314453125
-1.03422099672047,3.31316472489301,0.3154296875
-1.0549555508009,3.32221713741522,0.31640625
-1.0753214943665,3.33027011903181,0.3173828125
-1.09537999539777,3.33726892026281,0.318359375
-1.11502030198702,3.34322497922002,0.3193359375
-1.13422518166516,3.34813807091664,0.3203125
-1.15305862298693,3.35208359514161,0.3212890625
-1.17151554073615,3.35504538407633,0.322265625
-1.18962061273724,3.35699860890295,0.3232421875
-1.20734802370003,3.35799308948204,0.32421875
-1.22466423985083,3.3580660211415,0.3251953125
-1.24156367730008,3.35720900271414,0.326171875
-1.25809863819447,3.35545644157101,0.3271484375
-1.27420745675597,3.35288237004513,0.328125
-1.28980130132203,3.34950409674663,0.3291015625
-1.30484373192406,3.34530474189876,0.330078125
-1.31935314671787,3.34033277460809,0.3310546875
-1.33325345334789,3.33459088471486,0.33203125
-1.34654572157038,3.32816763326216,0.3330078125
-1.35920341808061,3.32108458605187,0.333984375
-1.37123298402696,3.31336240108476,0.3349609375
-1.38267228684182,3.30508081736865,0.3359375
-1.39355046215608,3.29630174763058,0.3369140625
-1.4039354724506,3.28698644116502,0.337890625
-1.41383689359538,3.27726601905736,0.3388671875
-1.42326606034283,3.26715218615098,0.33984375
-1.43230751270868,3.25667622087615,0.3408203125
-1.4410425629419,3.24594578861451,0.341796875
-1.44944153559419,3.23503927618172,0.3427734375
-1.45755957493792,3.22399018401935,0.34375
-1.46547811979278,3.21285259666722,0.3447265625
-1.47319903335008,3.20176312653567,0.345703125
-1.48074845672741,3.19075108558557,0.3466796875
-1.48817098732119,3.17989312762288,0.34765625
-1.49546667192177,3.16930185277647,0.3486328125
-1.50268194116159,3.15904395118153,0.349609375
-1.50987902265712,3.1491881128699,0.3505859375
-1.51706452651739,3.13979949276235,0.3515625
-1.52422488017694,3.13087216254149,0.3525390625
-1.53147966923433,3.12255236913271,0.353515625
-1.53882159265807,3.11492387921079,0.3544921875
-1.54627039600695,3.10796020506205,0.35546875
-1.55384779748743,3.10174364412252,0.3564453125
-1.56159885303035,3.09638640203588,0.357421875
-1.56950056238536,3.09179511162308,0.3583984375
-1.57759700525988,3.08805725325767,0.359375
-1.58585864602233,3.08512995571968,0.3603515625
-1.59425944410976,3.08298272681847,0.361328125
-1.60271237462498,3.08162864907376,0.3623046875
-1.61121735025146,3.08098400359533,0.36328125
-1.61968277501852,3.08101919469142,0.3642578125
-1.62803479855878,3.08167194195973,0.365234375
-1.63621215630828,3.08287169768507,0.3662109375
-1.64410671930294,3.08457624387106,0.3671875
-1.65162320216364,3.08673648150374,0.3681640625
-1.65863601702125,3.08934415542183,0.369140625
-1.66509295897119,3.09233900465193,0.3701171875
-1.67094766545572,3.0956158981358,0.37109375
-1.67611336425616,3.09914663157923,0.3720703125
-1.68055287844882,3.10288848490184,0.373046875
-1.68421779762555,3.10676077223608,0.3740234375
-1.68708645316549,3.11072343888795,0.375
-1.68914202210165,3.11473481648207,0.3759765625
-1.69033023517744,3.1187296237005,0.376953125
-1.69063827183708,3.12259682566812,0.3779296875
-1.69001410726606,3.12631483338818,0.37890625
-1.68844719100236,3.12980904077093,0.3798828125
-1.68593328878465,3.13305379345955,0.380859375
-1.68246422422114,3.13593212331258,0.3818359375
-1.67799226688717,3.13842267951967,0.3828125
-1.67244713612158,3.14045240952692,0.3837890625
-1.66587070667614,3.14189910356752,0.384765625
-1.65819741907032,3.14273616399675,0.3857421875
-1.64947320671307,3.14285881388115,0.38671875
-1.63963893305791,3.14223804661885,0.3876953125
-1.6287029084154,3.14076488041517,0.388671875
-1.61666311069421,3.13834638548941,0.3896484375
-1.60351762386196,3.13486231840212,0.390625
-1.58930160435111,3.13024468176546,0.3916015625
-1.57402238903815,3.1243513842711,0.392578125
-1.55768396425954,3.11712252384208,0.3935546875
-1.5402556743285,3.10854223635055,0.39453125
-1.52186895653857,3.098443522998,0.3955078125
-1.50253908539136,3.08684406819376,0.396484375
-1.48226050946801,3.07369286938316,0.3974609375
-1.46111748515231,3.05891517954537,0.3984375
-1.43916258858379,3.04243449017351,0.3994140625
-1.41639351799575,3.02423099340937,0.400390625
-1.39287387019402,3.00426828406011,0.4013671875
-1.36865854682356,2.98253398082879,0.40234375
