Drag (N),Lift (N),Time (s)
-1.12428377528329,0.0785103949021915,0
-1.06217795059177,-0.00551363060660584,0.000938967136150235
-0.999006162668197,-0.0880536666961938,0.00187793427230047
-0.93478949026222,-0.169179544724634,0.0028169014084507
-0.869624136752577,-0.248779971582545,0.00375586854460094
-0.803459835930235,-0.326881651760701,0.00469483568075117
-0.736348277200909,-0.403486857194018,0.00563380281690141
-0.668328187792843,-0.478572717824157,0.00657276995305164
-0.599369767477669,-0.552210391170077,0.00751173708920188
-0.529497181129874,-0.624301847892751,0.00845070422535211
-0.458605624821711,-0.694881225580618,0.00938967136150235
-0.386887487098702,-0.763892887317901,0.0103286384976526
-0.31434045432748,-0.831275565556685,0.0112676056338028
-0.241048974775141,-0.897014443486699,0.0122065727699531
-0.167001287954115,-0.961115964400006,0.0131455399061033
-0.0924040922926634,-1.02352907803211,0.0140845070422535
-0.0172742930206244,-1.0842163040281,0.0150234741784038
0.0583620995504324,-1.14310329911788,0.015962441314554
0.134412386032952,-1.20012074601122,0.0169014084507042
0.210724071612577,-1.25531462505603,0.0178403755868545
0.287165827765177,-1.30859855469275,0.0187793427230047
0.363710581870266,-1.35995161986989,0.0197183098591549
0.440171096945185,-1.40926850570786,0.0206572769953052
0.516545906223235,-1.45658560422007,0.0215962441314554
0.592662807116729,-1.50182238474991,0.0225352112676056
0.668416629683926,-1.54488290233953,0.0234741784037559
0.743729797835659,-1.58563413980054,0.0244131455399061
0.818534881522417,-1.62404355009307,0.0253521126760563
0.892727372158797,-1.66001985095494,0.0262910798122066
0.966025807083051,-1.69347753679438,0.0272300469483568
1.03843858845711,-1.72423354095001,0.028169014084507
1.10980367368194,-1.75232689302894,0.0291079812206573
1.17995930447446,-1.77762255167415,0.0300469483568075
1.2486855804666,-1.79995686894427,0.0309859154929577
1.3158425609001,-1.81931546105186,0.031924882629108
1.38129696417223,-1.83553059725582,0.0328638497652582
1.44484697315498,-1.84851874235912,0.0338028169014084
1.50633230006254,-1.85823104316463,0.0347417840375587
1.56547487378464,-1.86454806939904,0.0356807511737089
1.62227379041474,-1.86738337680078,0.0366197183098592
1.67646479337369,-1.86676423670772,0.0375586854460094
1.72790742491565,-1.86273925832147,0.0384976525821596
1.77644956260182,-1.85519199907045,0.0394366197183099
1.82203479982722,-1.84416378999651,0.0403755868544601
1.86448312462821,-1.82965565143414,0.0413145539906103
1.90369723615835,-1.81172132869222,0.0422535211267606
1.9395883109321,-1.79046612801989,0.0431924882629108
1.97205259343249,-1.76593246171764,0.044131455399061
2.00103589205738,-1.73817304255467,0.0450704225352113
2.02652925371821,-1.70732846659112,0.0460093896713615
2.04848828154761,-1.67348182259267,0.0469483568075117
2.06684730167873,-1.636715779108,0.047887323943662
2.08163289620196,-1.59720285356488,0.0488262910798122
2.09282089241028,-1.55508620988274,0.0497652582159624
2.10040462947472,-1.51051821801191,0.0507042253521127
2.1044615311425,-1.46368646761482,0.0516431924882629
2.10508657328121,-1.41474294358043,0.0525821596244131
2.10235895543109,-1.36391772029639,0.0535211267605634
2.09626646769696,-1.31139736052813,0.0544600938967136
2.08698445970505,-1.25734669711078,0.0553990610328638
2.07456643678924,-1.20197260330793,0.0563380281690141
2.05922841580595,-1.14549933442689,0.0572769953051643
2.04110512425369,-1.08804464752482,0.0582159624413146
2.0203940768202,-1.02987364149359,0.0591549295774648
1.99726998511164,-0.971166423396665,0.060093896713615
1.97186809599465,-0.912168802511098,0.0610328638497653
1.94442586149332,-0.853070609428956,0.0619718309859155
1.91520545536516,-0.794037006199976,0.0629107981220657
1.88449280461147,-0.735277260077195,0.063849765258216
1.85235908682245,-0.676973428458169,0.0647887323943662
1.81914424042424,-0.619320791617199,0.0657276995305164
1.78508905312918,-0.562314656904074,0.0666666666666667
1.75057127290374,-0.506228707926295,0.0676056338028169
1.71571774578769,-0.451059035816345,0.0685446009389671
1.68076950864308,-0.397042448025129,0.0694835680751174
1.6459590387121,-0.344165407319262,0.0704225352112676
1.61154005860034,-0.292502184882477,0.0713615023474178
1.57771485178509,-0.242168345292039,0.0723004694835681
1.54468621004139,-0.193167201265701,0.0732394366197183
1.51263181289003,-0.145481564895287,0.0741784037558685
1.48175479491593,-0.099163152453138,0.0751173708920188
1.45229667541605,-0.054183333299624,0.076056338028169
1.42444985250881,-0.0104935098617503,0.0769953051643192
1.39830068653391,0.0318472499248622,0.0779342723004695
1.37399933639642,0.0729646521150285,0.0788732394366197
1.35178462746486,0.112845979177377,0.07981220657277
1.33176026610592,0.151570887958388,0.0807511737089202
1.31409774778529,0.189140841549203,0.0816901408450704
1.29894335330488,0.225744738990412,0.0826291079812207
1.28637996211997,0.261412996111633,0.0835680751173709
1.27655893298546,0.296239252775106,0.0845070422535211
1.26956538847635,0.330291916818747,0.0854460093896714
1.26549585396417,0.363685848256464,0.0863849765258216
1.26432832392673,0.396544515902704,0.0873239436619718
1.26619237731437,0.428920508869091,0.0882629107981221
1.27114248874912,0.460986599651484,0.0892018779342723
1.27921004389033,0.492784823926021,0.0901408450704225
1.29039163530153,0.524543536089603,0.0910798122065728
1.30470589518269,0.556396783019228,0.092018779342723
1.3221197903487,0.588456339817427,0.0929577464788732
1.34245983043783,0.620847197883338,0.0938967136150235
1.36569922767506,0.653691120551304,0.0948356807511737
1.39173002347798,0.687151541337676,0.0957746478873239
1.4203959794187,0.721308780018939,0.0967136150234742
1.45152067276119,0.75634411239894,0.0976525821596244
1.48493951728194,0.792332491824494,0.0985915492957746
1.52044951846935,0.829444540112328,0.0995305164319249
1.55786934127125,0.867720244722645,0.100469483568075
1.59698193000688,0.907293781164347,0.101408450704225
1.63746564558228,0.948207309405262,0.102347417840376
1.67910248102959,0.9905452417896,0.103286384976526
1.72157174720449,1.0343553805133,0.104225352112676
1.76461074752506,1.07964912566164,0.105164319248826
1.80787586789448,1.12649983362526,0.106103286384977
1.85102448623635,1.17488558601002,0.107042253521127
1.89365466365015,1.22491835135718,0.107981220657277
1.93552248728878,1.27664945405672,0.108920187793427
1.9762834778092,1.33002961267449,0.109859154929577
2.01540827050127,1.38508547320507,0.110798122065728
2.05254019295301,1.44173526607352,0.111737089201878
2.08730909240417,1.50002223391945,0.112676056338028
2.11933178477882,1.55984425582915,0.113615023474178
2.14826080857304,1.62121447856955,0.114553990610329
2.1737509664732,1.68404424256066,0.115492957746479
2.1953554166977,1.74830582401298,0.116431924882629
2.21282653699627,1.81394620500011,0.117370892018779
2.22578849472984,1.8807687719339,0.11830985915493
2.23393351395514,1.94869094510852,0.11924882629108
2.23689962917541,2.01764802660766,0.12018779342723
2.2344039663583,2.08739560954388,0.12112676056338
2.2263299642577,2.15799098684846,0.122065727699531
2.21239563286249,2.22918043402915,0.123004694835681
2.19250978477034,2.3009593910883,0.123943661971831
2.16650778197409,2.37308783702569,0.124882629107981
2.13425773900274,2.44535890268565,0.125821596244131
2.09565201423257,2.51772011973143,0.126760563380282
2.05069888503614,2.59000448775248,0.127699530516432
1.99943283259917,2.66204377576663,0.128638497652582
1.94171510442681,2.73374920606728,0.129577464788732
1.87770516958472,2.80498840313978,0.130516431924883
1.80747653126374,2.87562874904149,0.131455399061033
1.73114449328628,2.94565909069311,0.132394366197183
1.64884421709788,3.01504686121507,0.133333333333333
1.56070667978289,3.08357877922429,0.134272300469484
1.46684523587247,3.15123385898781,0.135211267605634
1.36753460846554,3.21794503481755,0.136150234741784
1.26309443652647,3.28367526398156,0.137089201877934
1.15366002522529,3.34846871336894,0.138028169014085
1.03954861228429,3.41223651617912,0.138967136150235
0.921069112655835,3.47499541931139,0.139906103286385
0.798564801647452,3.53668296387283,0.140845070422535
0.672309964146372,3.59733790331151,0.141784037558685
0.542678762587398,3.65695735153655,0.142723004694836
0.410114345899032,3.71566946483232,0.143661971830986
0.275038328814952,3.77339650720761,0.144600938967136
0.137899098407858,3.83027548652006,0.145539906103286
-0.00093682338583907,3.88632510701588,0.146478873239437
-0.141032312599339,3.94150067512594,0.147417840375587
-0.281972316204383,3.99604923583944,0.148356807511737
-0.423214785630161,4.04987088691907,0.149295774647887
-0.564365108216413,4.10310479394016,0.150234741784038
-0.704951117320057,4.15580367494944,0.151173708920188
-0.844527899235929,4.20807635869247,0.152112676056338
-0.98261932116616,4.25992992961499,0.153051643192488
-1.11883185473034,4.31152986858921,0.153990610328638
-1.25268612127331,4.36290320096214,0.154929577464789
-1.38373200298618,4.41411336739501,0.155868544600939
-1.51159641878767,4.46525786317781,0.156807511737089
-1.63592901844221,4.51639818989252,0.157746478873239
-1.75636443541292,4.56766974897796,0.15868544600939
-1.87244846191565,4.61905099720315,0.15962441314554
-1.98396728786813,4.67075056489676,0.16056338028169
-2.09063459165293,4.72261290486351,0.16150234741784
-2.19233203805882,4.77490837342822,0.162441314553991
-2.28882548234609,4.82759130977575,0.163380281690141
-2.37981356270891,4.88074876436329,0.164319248826291
-2.46510568995696,4.93435029928886,0.165258215962441
-2.54468329832293,4.98850174030526,0.166197183098592
-2.618402425806,5.04328600863008,0.167136150234742
-2.68612754290706,5.09877623678402,0.168075117370892
-2.74776278193288,5.1549434946251,0.169014084507042
-2.80336889622184,5.21181755367131,0.169953051643192
-2.85293294516382,5.26940594324659,0.170892018779343
-2.89655259866904,5.32776417177729,0.171830985915493
-2.93424300320793,5.38695367394695,0.172769953051643
-2.96610284868521,5.44698269026727,0.173708920187793
-2.99236173225492,5.50801749495504,0.174647887323944
-3.0131452192046,5.56997106130335,0.175586854460094
-3.02879825222191,5.63302156922849,0.176525821596244
-3.03951539621011,5.69711310424879,0.177464788732394
-3.04564271843142,5.76236169106901,0.178403755868545
-3.04753453960882,5.82879760519016,0.179342723004695
-3.04558845703323,5.89651723712111,0.180281690140845
-3.04021487847229,5.965552974644,0.181220657276995
-3.03182157757116,6.03593520824428,0.182159624413146
-3.0209712055558,6.10784926545621,0.183098591549296
-3.00816497470273,6.18124638462499,0.184037558685446
-2.99387546083274,6.25633516775232,0.184976525821596
-2.97862123798752,6.33301678037765,0.185915492957746
-2.96300802458454,6.41132399285865,0.186854460093897
-2.94747711473624,6.49133860542551,0.187793427230047
-2.93239605879158,6.5730076618626,0.188732394366197
-2.9182529958592,6.6563786355228,0.189671361502347
-2.90550741764672,6.74125887607294,0.190610328638498
-2.89455476560113,6.82770910782527,0.191549295774648
-2.88574934875036,6.91555400047021,0.192488262910798
-2.87939164030972,7.00478636914225,0.193427230046948
-2.87585049101863,7.09523981750097,0.194366197183099
-2.87545954801494,7.18689083786816,0.195305164319249
-2.87847801700616,7.27958048843746,0.196244131455399
-2.8850609234929,7.37329362840611,0.197183098591549
-2.89557161700697,7.46780813931424,0.1981220657277
-2.9101537815249,7.56299708651188,0.19906103286385
-2.92884649748386,7.6588103173232,0.2
-2.95173571661877,7.75493764002956,0.20093896713615
-2.97885681941652,7.85125444842127,0.2018779342723
-3.01015489980056,7.94745046302586,0.202816901408451
-3.04561577855975,8.04319788942833,0.203755868544601
-3.08530291000749,8.13838363680753,0.204694835680751
-3.12887203132812,8.23262980337598,0.205633802816901
-3.17618172886484,8.3258043355082,0.206572769953052
-3.22707055931307,8.41754452827104,0.207511737089202
-3.28129836416239,8.50761045974719,0.208450704225352
-3.33869880816002,8.59574573245171,0.209389671361502
-3.39894077964154,8.68165844491898,0.210328638497653
-3.46170400321,8.7651005990057,0.211267605633803
-3.52677965620836,8.84576172408812,0.212206572769953
-3.59382677363821,8.92351714846932,0.213145539906103
-3.66255763044941,8.99800916589641,0.214084507042254
-3.73249174760045,9.06894108018992,0.215023474178404
-3.80333779756559,9.13622295088576,0.215962441314554
-3.87476354998116,9.1993491913463,0.216901408450704
-3.94642829063053,9.25822661463088,0.217840375586854
-4.01808426500372,9.31255053959167,0.218779342723005
-4.08930551929486,9.36219954181725,0.219718309859155
-4.15970947685893,9.4070200518794,0.220657276995305
-4.22888569012683,9.44671168640019,0.221596244131455
-4.29661919779928,9.48114410045163,0.222535211267606
-4.36264424606511,9.51020976665255,0.223474178403756
-4.42639985023593,9.53363085521832,0.224413145539906
-4.48755519989585,9.55130510712677,0.225352112676056
-4.54593192260332,9.56309139314782,0.226291079812207
-4.6012040564177,9.56879262935933,0.227230046948357
-4.65304387894676,9.56828172987214,0.228169014084507
-4.70105528498616,9.56152539827418,0.229107981220657
-4.74495448419187,9.54837468049323,0.230046948356807
-4.78454905791482,9.52874231028867,0.230985915492958
-4.81969409725856,9.50260034025047,0.231924882629108
-4.84998949271517,9.46982806191207,0.232863849765258
-4.87519913014614,9.43043460164123,0.233802816901408
-4.89528854722851,9.38435061005511,0.234741784037559
-4.91018341633045,9.33174514962852,0.235680751173709
-4.91968701471174,9.27265489769042,0.236619718309859
-4.92363907813981,9.20710861474314,0.237558685446009
-4.92213704224014,9.13518562652989,0.23849765258216
-4.91524165120043,9.05709454096502,0.23943661971831
-4.90298745049216,8.97298380578239,0.24037558685446
-4.8853594852354,8.8830742286443,0.24131455399061
-4.86249438405155,8.78764718340824,0.242253521126761
-4.83457388569851,8.68680908736651,0.243192488262911
-4.80170662130753,8.5810049551543,0.244131455399061
-4.76407320139928,8.47042224140356,0.245070422535211
-4.72185430983897,8.35537609378206,0.246009389671361
-4.67539646924525,8.23621235043161,0.246948356807512
-4.62489560586507,8.11322664121607,0.247887323943662
-4.57062731587663,7.9868241161982,0.248826291079812
-4.51293133447343,7.85736604258333,0.249765258215962
-4.45213132444675,7.72533516958635,0.250704225352113
-4.38853272902287,7.5911725641085,0.251643192488263
-4.32250110599349,7.45519386166123,0.252582159624413
-4.25448690677248,7.31778238022683,0.253521126760563
-4.18476734286413,7.17943820973611,0.254460093896714
-4.11362673582155,7.04043889259912,0.255399061032864
-4.04140707645841,6.90129530413178,0.256338028169014
-3.96842409573537,6.76231379230936,0.257276995305164
-3.8949024272732,6.62386873211185,0.258215962441315
-3.82128150741699,6.48641747138381,0.259154929577465
-3.74786431172444,6.35025025103556,0.260093896713615
-3.67485707786406,6.21570503914675,0.261032863849765
-3.60254352126737,6.08313333252778,0.261971830985915
-3.53123126977325,5.95281451061407,0.262910798122066
-3.46124906775138,5.82505995226236,0.263849765258216
-3.39281106862967,5.70011216784122,0.264788732394366
-3.32624523381883,5.57830812942174,0.265727699530516
-3.2616767418376,5.45981407227181,0.266666666666667
-3.19931582512255,5.34490469578342,0.267605633802817
-3.13935767011341,5.23364916722841,0.268544600938967
-3.08196036265789,5.12609551213565,0.269483568075117
-3.02736501596027,5.0225227187943,0.270422535211268
-2.97552274269313,4.9228780891484,0.271361502347418
-2.926612851518,4.82722262635752,0.272300469483568
-2.88067540857247,4.73551628907255,0.273239436619718
-2.83773798351285,4.64781542601574,0.274178403755869
-2.79771879994209,4.56396012265609,0.275117370892019
-2.76057921151044,4.48389846183513,0.276056338028169
-2.72625344039982,4.40751814946352,0.276995305164319
-2.69459850719361,4.33452543352283,0.277934272300469
-2.6654693284585,4.2648370975816,0.27887323943662
-2.63874573021894,4.1981432593258,0.27981220657277
-2.61433610814963,4.13426508750293,0.28075117370892
-2.59193546269533,4.07304725776981,0.28169014084507
-2.57141834749719,4.01417119818046,0.282629107981221
-2.55270176401653,3.95748264447515,0.283568075117371
-2.53562225345742,3.90264248071925,0.284507042253521
-2.51996542288744,3.8495629182767,0.285446009389671
-2.50563700815574,3.79790507577154,0.286384976525822
-2.49245260514536,3.74750441885582,0.287323943661972
-2.48029827549975,3.69809604167285,0.288262910798122
-2.46894552946741,3.64942327642021,0.289201877934272
-2.45821807910529,3.6012819586544,0.290140845070423
-2.44802218881881,3.55334247393718,0.291079812206573
-2.43821596985375,3.5052911969776,0.292018779342723
-2.42849723631766,3.45688397359091,0.292957746478873
-2.41873134624717,3.40798202287644,0.293896713615023
-2.40888860670855,3.35819275310053,0.294835680751174
-2.39876676037488,3.30744524813571,0.295774647887324
-2.38821080405527,3.25557317458663,0.296713615023474
-2.37712266965324,3.2023528507417,0.297652582159624
-2.36540328092495,3.14777441327046,0.298591549295775
-2.35282855520161,3.09155983439573,0.299530516431925
-2.33939975946995,3.03367935842202,0.300469483568075
-2.32504204044155,2.97393687073619,0.301408450704225
-2.30962696629426,2.91227630727977,0.302347417840376
-2.29308929805546,2.84860307704645,0.303286384976526
-2.27532354313795,2.78279518058989,0.304225352112676
-2.25632306403593,2.71485880350628,0.305164319248826
-2.23598920738305,2.64469795240094,0.306103286384977
-2.21423118738275,2.57240250925091,0.307042253521127
-2.19102988052252,2.49777892015478,0.307981220657277
-2.1663263666389,2.42096752558869,0.308920187793427
-2.14024434052216,2.34201003894412,0.309859154929577
-2.11266097180008,2.2608998365096,0.310798122065728
-2.08362157024665,2.17786487871832,0.311737089201878
-2.05305814225551,2.09286928988603,0.312676056338028
-2.0210000714341,2.00610833830779,0.313615023474178
-1.98744289093245,1.91764448816237,0.314553990610329
-1.95236579491271,1.82756108032902,0.315492957746479
-1.91588600652271,1.73600534288333,0.316431924882629
-1.87792942539528,1.64307166729831,0.317370892018779
-1.83846855864647,1.5488108013507,0.31830985915493
-1.79760432512265,1.45350469161887,0.31924882629108
-1.75545389964223,1.3572766113792,0.32018779342723
-1.71197409205787,1.26021110412403,0.32112676056338
-1.66719010636113,1.16259906751897,0.322065727699531
-1.6211708572821,1.06460287948672,0.323004694835681
-1.57402199260946,0.966406488148614,0.323943661971831
-1.52580985078968,0.868240514488752,0.324882629107981
-1.47660196094609,0.770255626833038,0.325821596244131
-1.42639861324278,0.672631608430404,0.326760563380282
-1.37536916038201,0.575559755268434,0.327699530516432
-1.32363932233739,0.479246451013028,0.328638497652582
-1.27115650042917,0.383926383214242,0.329577464788732
-1.21798991513866,0.289678637321066,0.330516431924883
-1.16419021891968,0.196599228177901,0.331455399061033
-1.10987889406891,0.104924507899733,0.332394366197183
-1.05504186417201,0.0147422496360453,0.333333333333333
