Drag (N),Lift (N),Time (s)
-1.12663828157755,0.0293951009000797,0
-1.06092649135295,-0.0518399343297699,0.000941619585687382
-0.99421448316642,-0.131545895906376,0.00188323917137476
-0.926520269704247,-0.209793468165967,0.00282485875706215
-0.857944817318124,-0.286475660257983,0.00376647834274953
-0.788436742807782,-0.361616958675198,0.00470809792843691
-0.718047587281665,-0.435221887850361,0.00564971751412429
-0.646817038686212,-0.507269288750329,0.00659133709981168
-0.574712221308886,-0.577828951300168,0.00753295668549906
-0.501761553004279,-0.646803993520078,0.00847457627118644
-0.427858840534066,-0.714223949023959,0.00941619585687382
-0.353198716180688,-0.78004162572054,0.0103578154425612
-0.277781540965747,-0.844195713455765,0.0112994350282486
-0.201692329080487,-0.906675093103361,0.012241054613936
-0.124919050178266,-0.967485688837539,0.0131826741996234
-0.0476704327375036,-1.02658551504115,0.0141242937853107
0.0300349992318757,-1.08393786442806,0.0150659133709981
0.108168017366459,-1.13946959904033,0.0160075329566855
0.186632986930234,-1.19311551105294,0.0169491525423729
0.265279563884724,-1.24492818878106,0.0178907721280603
0.343972776790744,-1.294827061351,0.0188323917137476
0.422684666493212,-1.3427924145089,0.019774011299435
0.501223580447062,-1.38872720077408,0.0207156308851224
0.579589640678959,-1.43266784150227,0.0216572504708098
0.657607295802019,-1.47454139405557,0.0225988700564972
0.735167290912697,-1.51425659224291,0.0235404896421846
0.81218632162881,-1.55168392930027,0.0244821092278719
0.888595602397372,-1.5867938304228,0.0254237288135593
0.964286742425642,-1.61949965882928,0.0263653483992467
1.03897481724043,-1.64972826753918,0.0273069679849341
1.11266023575105,-1.67729639763287,0.0282485875706215
1.18518281203468,-1.70225010976881,0.0291902071563088
1.25637505134501,-1.72446154691666,0.0301318267419962
1.32601012438744,-1.74377680881094,0.0310734463276836
1.39394759618433,-1.76018762948454,0.032015065913371
1.46004699567532,-1.77353225150072,0.0329566854990584
1.52410305406346,-1.78373602230894,0.0338983050847458
1.58595350517488,-1.79075712686448,0.0348399246704331
1.64531533308603,-1.79448837785668,0.0357815442561205
1.70218386410496,-1.79484345272761,0.0367231638418079
1.75629628272529,-1.79186112356895,0.0376647834274953
1.80751438518941,-1.78559607999794,0.0386064030131827
1.85568111469174,-1.77593862575812,0.0395480225988701
1.90074192114863,-1.76293251297489,0.0404896421845574
1.94251700843428,-1.74658661302318,0.0414312617702448
1.98091151264857,-1.72695886426157,0.0423728813559322
2.01584128824029,-1.704158347137,0.0433145009416196
2.0472045284433,-1.67823195933494,0.044256120527307
2.07494939253256,-1.64923472725818,0.0451977401129944
2.09907306865489,-1.61730750367882,0.0461393596986817
2.11953482647994,-1.58253523484459,0.0470809792843691
2.13627266059927,-1.54500337527589,0.0480225988700565
2.14932065290753,-1.5048831187076,0.0489642184557439
2.15866089842721,-1.46231854719751,0.0499058380414313
2.16429338895288,-1.4174621762148,0.0508474576271186
2.16630365708764,-1.37049803970166,0.051789077212806
2.16479321779085,-1.32157383510199,0.0527306967984934
2.15985123092618,-1.27091596318816,0.0536723163841808
2.15147363597309,-1.21871134174734,0.0546139359698682
2.1398428055711,-1.16511699808704,0.0555555555555555
2.12502121781391,-1.11033727470347,0.0564971751412429
2.10723446583687,-1.05458679093964,0.0574387947269303
2.08662228539843,-0.997977315043136,0.0583804143126177
2.0633935666474,-0.940765078120749,0.0593220338983051
2.03773071106296,-0.883122395000708,0.0602636534839925
2.00977955883677,-0.825288941618627,0.0612052730696798
1.97978561628534,-0.767444010378096,0.0621468926553672
1.94801801190229,-0.709741170272491,0.0630885122410546
1.91477152865913,-0.652377017418167,0.064030131826742
1.88012521763292,-0.595530331211498,0.0649717514124294
1.84442721170968,-0.539381378157346,0.0659133709981168
1.80791786473466,-0.483914967059365,0.0668549905838041
1.77098650305326,-0.429388043904029,0.0677966101694915
1.73375968147353,-0.375791170597652,0.0687382297551789
1.69648853683977,-0.323350415322664,0.0696798493408663
1.65940473464152,-0.272042113215245,0.0706214689265537
1.62276499566019,-0.221929397544802,0.0715630885122411
1.58677645170009,-0.173118899415375,0.0725047080979284
1.55164184602216,-0.125605082738755,0.0734463276836158
1.51753793930961,-0.0793630256940012,0.0743879472693032
1.48466992864037,-0.0344355347248759,0.0753295668549906
1.45327785458759,0.00921652848199561,0.076271186440678
1.42355181235295,0.0516501075335442,0.0772128060263653
1.3955806565874,0.0928099576988443,0.0781544256120527
1.36950892005692,0.132828215227848,0.0790960451977401
1.3455757555521,0.171702592109718,0.0800376647834275
1.32388129615134,0.209517192983448,0.0809792843691149
1.30459681027548,0.24628096007479,0.0819209039548023
1.2878601998391,0.282188993313266,0.0828625235404896
1.27375293869476,0.31727529473043,0.083804143126177
1.26242215702394,0.351640017240281,0.0847457627118644
1.25394991247583,0.385355216566206,0.0856873822975518
1.24842762842773,0.4185398537784,0.0866290018832392
1.24582793466781,0.451316320308961,0.0875706214689266
1.24627799291113,0.483742807370762,0.0885122410546139
1.24982468970152,0.515994299168169,0.0894538606403013
1.2564975472557,0.548114160391901,0.0903954802259887
1.26628320070143,0.580330379465784,0.0913370998116761
1.27919441746229,0.612777688409038,0.0922787193973635
1.29519332023196,0.645566315051767,0.0932203389830508
1.31410113172484,0.678813564285699,0.0941619585687382
1.33588577841988,0.712639915087131,0.0951035781544256
1.36043227561746,0.747203936332691,0.096045197740113
1.3875810300946,0.78257905632773,0.0969868173258004
1.41714787989115,0.818938682890033,0.0979284369114878
1.44896512601411,0.856350518877198,0.0988700564971751
1.48282252473857,0.894976169215557,0.0998116760828625
1.51853716937464,0.934847673582224,0.10075329566855
1.55588635817697,0.976089611944931,0.101694915254237
1.59454691918877,1.01873007444433,0.102636534839925
1.63429737092179,1.0628438837524,0.103578154425612
1.67481524435419,1.10846480830397,0.104519774011299
1.71583759566826,1.15559277867,0.105461393596987
1.75701793805085,1.2042860931857,0.106403013182674
1.79801493159278,1.25450790935333,0.107344632768362
1.83842213595111,1.3063525568163,0.108286252354049
1.8779936316913,1.35986067178618,0.109227871939736
1.91638741696427,1.41496799375593,0.110169491525424
1.95307346861582,1.47167805279469,0.111111111111111
1.98769902044586,1.52989359932194,0.112052730696798
2.01989238578008,1.58964168898324,0.112994350282486
2.04927519970057,1.65080358380672,0.113935969868173
2.07549975795588,1.71337726198859,0.114877589453861
2.09822505906028,1.77725909103776,0.115819209039548
2.11700589582124,1.8424018825869,0.116760828625235
2.13159719427948,1.90874186804006,0.117702448210923
2.14163205566959,1.97606622735219,0.11864406779661
2.14680659905898,2.04427903441695,0.119585687382298
2.1467620255453,2.11329986418291,0.120527306967985
2.14122639120831,2.18287220359182,0.121468926553672
2.1300807466598,2.25304820671464,0.12241054613936
2.11305443758759,2.3235620903171,0.123352165725047
2.09005656228384,2.39440532120303,0.124293785310734
2.06093310900928,2.46533092540999,0.125235404896422
2.02556134132449,2.53612647791248,0.126177024482109
1.98383600869342,2.6067348650503,0.127118644067797
1.93577266506602,2.6769896064142,0.128060263653484
1.88141309694193,2.74672413518882,0.129001883239171
1.82062255631711,2.81584370586545,0.129943502824859
1.75356613461685,2.88422302486454,0.130885122410546
1.68032304978665,2.95173280663051,0.131826741996234
1.60100898239572,3.0183669381814,0.132768361581921
1.51576038579318,3.08409877929357,0.133709981167608
1.42471741560551,3.1487209647207,0.134651600753296
1.32799423386026,3.21221747315883,0.135593220338983
1.22586822754507,3.2745332860048,0.13653483992467
1.11866034718012,3.33564533823896,0.137476459510358
1.00650384262226,3.39560365664194,0.138418079096045
0.889719525969144,3.45433329670975,0.139359698681733
0.76861528766508,3.51186446408333,0.14030131826742
0.643536800714203,3.56814973277539,0.141242937853107
0.514756398543645,3.62323978348805,0.142184557438795
0.382648013357998,3.67714805361353,0.143126177024482
0.247648782207564,3.73002190734459,0.144067796610169
0.11018330933853,3.78180207325385,0.145009416195857
-0.0293064211403574,3.83264498716723,0.145951035781544
-0.170455052008115,3.88258532299098,0.146892655367232
-0.312823925836998,3.93159749677396,0.147834274952919
-0.456009160588342,3.97994642273211,0.148775894538606
-0.599464865927079,4.0275559375395,0.149717514124294
-0.742802875093904,4.07458228707914,0.150659133709981
-0.885553770372653,4.12109873484158,0.151600753295669
-1.02727780856064,4.16723341285477,0.152542372881356
-1.16749961905209,4.21301416744257,0.153483992467043
-1.30583326619268,4.25862348744295,0.154425612052731
-1.44180100641861,4.30410928268403,0.155367231638418
-1.57495591757615,4.34955456730863,0.156308851224105
-1.70492952635939,4.39507301738104,0.157250470809793
-1.83137449864987,4.44074135801002,0.15819209039548
-1.9539317217865,4.4867107988267,0.159133709981168
-2.07214648058776,4.53297962936979,0.160075329566855
-2.18581426879833,4.57976560766289,0.161016949152542
-2.29464225244215,4.62692582373075,0.16195856873823
-2.39852400171415,4.67473553828826,0.162900188323917
-2.49722360303174,4.72315934722938,0.163841807909605
-2.59044377850637,4.77229736337591,0.164783427495292
-2.67799279266376,4.82212749117972,0.165725047080979
-2.75985671346161,4.87275626549833,0.166666666666667
-2.83589533289172,4.92427280816098,0.167608286252354
-2.9059764404448,4.97675609379615,0.168549905838041
-2.97000299775733,5.03018140148699,0.169491525423729
-3.02803699895937,5.0845758243922,0.170433145009416
-3.08006584418188,5.13994744913095,0.171374764595104
-3.12618953161852,5.19634747099624,0.172316384180791
-3.1664258730669,5.2538366055196,0.173258003766478
-3.20087382394689,5.31241878057645,0.174199623352166
-3.22977001566638,5.37225009724015,0.175141242937853
-3.25323609795094,5.43323813455303,0.17608286252354
-3.271624457278,5.49554585665485,0.177024482109228
-3.28512703441275,5.55910891548026,0.177966101694915
-3.29409462816456,5.62402813006225,0.178907721280603
-3.29888254262041,5.69031829183338,0.17984934086629
-3.29989220114164,5.75805835660989,0.180790960451977
-3.29753503361388,5.8272627796125,0.181732580037665
-3.29221975118645,5.89794413556511,0.182674199623352
-3.28451655343954,5.97026303310942,0.18361581920904
-3.27492404865313,6.04414889442849,0.184557438794727
-3.26392346195208,6.11978950951335,0.185499058380414
-3.25202856271185,6.19706351808996,0.186440677966102
-3.23984592226314,6.27597723825958,0.187382297551789
-3.22781998278008,6.35659314341788,0.188323917137476
-3.21631563486749,6.43884229543074,0.189265536723164
-3.20582262379227,6.52275083013809,0.190207156308851
-3.19679160063828,6.6081062378204,0.191148775894539
-3.18962027923717,6.69495193608016,0.192090395480226
-3.18465498359246,6.78309730674066,0.193032015065913
-3.18219558753613,6.87252206531723,0.193973634651601
-3.182603332637,6.9630438847986,0.194915254237288
-3.18621052308425,7.05462472639692,0.195856873822976
-3.19326918493477,7.14709449318903,0.196798493408663
-3.20393353570671,7.24043129666554,0.19774011299435
-3.21855689043247,7.33439738069012,0.198681732580038
-3.23727725952164,7.42885966401943,0.199623352165725
-3.26013149858646,7.52376633704717,0.200564971751412
-3.28719194718211,7.61880375412645,0.2015065913371
-3.31848851687457,7.71384588436993,0.202448210922787
-3.35395281964521,7.80858513859184,0.203389830508475
-3.39355639158679,7.90269465285336,0.204331450094162
-3.43735769366593,7.99605867613244,0.205273069679849
-3.48499630688444,8.08831468285351,0.206214689265537
-3.53632519208174,8.17933691345393,0.207156308851224
-3.59116723864451,8.26877005027333,0.208097928436911
-3.64927205139299,8.356384875314,0.209039548022599
-3.71046226948748,8.44193249056641,0.209981167608286
-3.7743943638454,8.5251357152784,0.210922787193974
-3.84073754637392,8.60576075756257,0.211864406779661
-3.90926965063051,8.68350655101077,0.212806026365348
-3.97964459803683,8.75826341527024,0.213747645951036
-4.05155933446563,8.82968653493562,0.214689265536723
-4.12452089647941,8.8975004544179,0.215630885122411
-4.19823431068372,8.96162802638454,0.216572504708098
-4.27234560954521,9.02157863708932,0.217514124293785
-4.34651033837441,9.07727405003027,0.218455743879473
-4.42046768846373,9.12842068094848,0.21939736346516
-4.49378681496251,9.17491580084567,0.220338983050847
-4.56607880674952,9.21662267421662,0.221280602636535
-4.63692050437192,9.25325910705329,0.222222222222222
-4.70609146556001,9.28470425496737,0.22316384180791
-4.7733214991629,9.31086228493837,0.224105461393597
-4.83803803566029,9.33148010142248,0.225047080979284
-4.89990611901864,9.34646997247313,0.225988700564972
-4.95874139059687,9.35569868368062,0.226930320150659
-5.01420960201793,9.35898355696319,0.227871939736346
-5.06597779940006,9.35621192243926,0.228813559322034
-5.11364880217424,9.34736779325391,0.229755178907721
-5.15693259281655,9.33231473586715,0.230696798493409
-5.1956331293179,9.31097396028006,0.231638418079096
-5.2296044216541,9.28332386651966,0.232580037664783
-5.25844147590346,9.24926131353867,0.233521657250471
-5.28190880074238,9.20880571817269,0.234463276836158
-5.2999689416708,9.16188930026952,0.235404896421846
-5.3125550162019,9.10868420351974,0.236346516007533
-5.31947208867456,9.04923565126898,0.23728813559322
-5.32056130190772,8.98357936727366,0.238229755178908
-5.31592345893005,8.9117903516941,0.239171374764595
-5.30562834546369,8.83407436427191,0.240112994350282
-5.28971694929966,8.7505782045993,0.24105461393597
-5.26818396128676,8.66152312250132,0.241996233521657
-5.24117815336146,8.56718426437312,0.242937853107345
-5.20888573316375,8.46766001888801,0.243879472693032
-5.17143463969786,8.3633902387025,0.244821092278719
-5.12901348823947,8.25455432191299,0.245762711864407
-5.081816537231,8.14145923491699,0.246704331450094
-5.03020506472621,8.02443537159071,0.247645951035782
-4.97438770568721,7.903769534241,0.248587570621469
-4.91465746638326,7.7798544659811,0.249529190207156
-4.8513695169094,7.653036271129,0.250470809792844
-4.78486826922664,7.52378312145664,0.251412429378531
-4.71547811491503,7.39252234082089,0.252354048964218
-4.64357803166388,7.25955331891122,0.253295668549906
-4.56963476225269,7.12523936046141,0.254237288135593
-4.49394706795822,6.9900679876315,0.255178907721281
-4.41681110595236,6.85430407674069,0.256120527306968
-4.33859082561761,6.71844309943504,0.257062146892655
-4.25961502011971,6.58277734012332,0.258003766478343
-4.18012443928528,6.4476710190826,0.25894538606403
-4.10057805044615,6.31356188091946,0.259887005649718
-4.02129120092515,6.18072667469099,0.260828625235405
-3.9424846740588,6.04949405084535,0.261770244821092
-3.86445724731992,5.92020279615256,0.26271186440678
-3.78752844211368,5.79311860560283,0.263653483992467
-3.71204027207291,5.66853822206125,0.264595103578154
-3.63821726495265,5.54669458383892,0.265536723163842
-3.56640176853228,5.42791003680836,0.266478342749529
-3.4967260932689,5.31234519780803,0.267419962335217
-3.42941225372356,5.20026533456688,0.268361581920904
-3.36465826759577,5.0917310346119,0.269303201506591
-3.3026241651147,4.98678338215448,0.270244821092279
-3.24356299929653,4.88569058273848,0.271186440677966
-3.18742363068683,4.78840212090011,0.272128060263653
-3.13438785820547,4.69497112040345,0.273069679849341
-3.08449396327683,4.60535583034953,0.274011299435028
-3.03777194721377,4.51961134325758,0.274952919020716
-2.99413313607836,4.43758146383612,0.275894538606403
-2.95353665570898,4.35921601007044,0.27683615819209
-2.91591189269406,4.28440566393841,0.277777777777778
-2.88110319041864,4.21286318968298,0.278719397363465
-2.84896197368692,4.14451177852677,0.279661016949153
-2.81935466602567,4.07904708501026,0.28060263653484
-2.7921819497869,4.0162944438132,0.281544256120527
-2.7671323405547,3.95611198232053,0.282485875706215
-2.74406661545424,3.89818690368949,0.283427495291902
-2.72289512603054,3.84236871083115,0.284369114877589
-2.70343977703493,3.78832574054664,0.285310734463277
-2.68548255030302,3.73597963944363,0.286252354048964
-2.66891448960453,3.6849959604306,0.287193973634652
-2.65354418944692,3.63521836935448,0.288135593220339
-2.63924626488652,3.58638718241157,0.289077212806026
-2.62578124795114,3.53825594267329,0.290018832391714
-2.61296411295685,3.49062836958755,0.290960451977401
-2.60068683594472,3.44317925112519,0.291902071563089
-2.58879398306415,3.39560144959762,0.292843691148776
-2.5769730061807,3.34766422436423,0.293785310734463
-2.56508333794248,3.29923479961302,0.294726930320151
-2.55307818906593,3.2499222524582,0.295668549905838
-2.54075240141027,3.19966455660947,0.296610169491525
-2.52794386395248,3.14830229812821,0.297551789077213
-2.51454484507598,3.09561628586856,0.2984934086629
-2.5004559326031,3.04160098753283,0.299435028248588
-2.4854411297408,2.9859884143134,0.300376647834275
-2.46950040434472,2.92874878357041,0.301318267419962
-2.45255041997088,2.86968943240299,0.30225988700565
-2.4344604215559,2.80875995223061,0.303201506591337
-2.41516110621847,2.74586868776067,0.304143126177024
-2.39454176023584,2.68089835718529,0.305084745762712
-2.37259602223156,2.61385542973728,0.306026365348399
-2.34922114556235,2.54464830658578,0.306967984934087
-2.3243303514364,2.47337074418097,0.307909604519774
-2.29789609183994,2.39983020699775,0.308851224105461
-2.26986562425403,2.32416947200064,0.309792843691149
-2.24036434525151,2.24642481738828,0.310734463276836
-2.2092692524452,2.16659498353906,0.311676082862524
-2.17663555597868,2.08490573753377,0.312617702448211
-2.14239376208507,2.00132420367332,0.313559322033898
-2.10658174388853,1.91604418270568,0.314500941619586
-2.06919776343972,1.82912827419881,0.315442561205273
-2.03022466998147,1.7406606472478,0.31638418079096
-1.9897859970896,1.65078327659786,0.317325800376648
-1.94781183222229,1.55959369609483,0.318267419962335
-1.90427692224965,1.4671438044376,0.319209039548023
-1.8592943883027,1.37371087783559,0.32015065913371
-1.81298667078017,1.27941296114256,0.321092278719397
-1.76531430837751,1.18433640131193,0.322033898305085
-1.71631516987564,1.08877071975653,0.322975517890772
-1.6660651872386,0.992875133832954,0.32391713747646
-1.61467793140615,0.896828808292852,0.324858757062147
-1.56222973723127,0.800859250977864,0.325800376647834
-1.50879464162463,0.705114041232044,0.326741996233522
-1.45438077650932,0.609772778533725,0.327683615819209
-1.39916567761513,0.515019189737978,0.328625235404896
-1.34328394758719,0.421053978250957,0.329566854990584
-1.28669327473518,0.328113902574359,0.330508474576271
-1.22946626331669,0.236274953530361,0.331450094161959
-1.17165770568432,0.145630845149505,0.332391713747646
-1.11339927804497,0.0564124056085779,0.333333333333333
