Drag (N),Lift (N),Time (s)
-0.0653180898481687,0.010920084202578,0
-0.0179721080072242,-0.04387634562204,0.00099403578528827
0.0307337788494089,-0.100164252434049,0.00198807157057654
0.0807025262755729,-0.157905783133086,0.00298210735586481
0.131914140915957,-0.216961070112895,0.00397614314115308
0.184275743549223,-0.277263786453278,0.00497017892644135
0.237692688933623,-0.338697803525527,0.00596421471172962
0.292092488090197,-0.401091815790306,0.00695825049701789
0.347353982500911,-0.464403326262998,0.00795228628230616
0.403432048674106,-0.528496679280156,0.00894632206759443
0.460196725444861,-0.593160948218016,0.0099403578528827
0.517528615054305,-0.658325936134541,0.010934393638171
0.575301259530137,-0.72380453198286,0.0119284294234592
0.633367271920937,-0.789396235003624,0.0129224652087475
0.6916432107514,-0.854955824262163,0.0139165009940358
0.750011130558843,-0.920337403585846,0.0149105367793241
0.808349489250563,-0.985349746389923,0.0159045725646123
0.866559346418745,-1.04981033239111,0.0168986083499006
0.924545773368505,-1.11359362585071,0.0178926441351889
0.982239288403247,-1.17651567860583,0.0188866799204771
1.03951439163073,-1.23840173930218,0.0198807157057654
1.09630467870671,-1.29916393469964,0.0208747514910537
1.15256178537964,-1.35861866114955,0.0218687872763419
1.20818843666251,-1.41664441394882,0.0228628230616302
1.26309417228098,-1.47310760569706,0.0238568588469185
1.31723603253417,-1.52788802725486,0.0248508946322068
1.37053392002572,-1.58078303132742,0.025844930417495
1.42290657762972,-1.63174527904217,0.0268389662027833
1.47424117418532,-1.68063648237604,0.0278330019880716
1.52446658775682,-1.72744085982515,0.0288270377733598
1.57351201936921,-1.77202477299105,0.0298210735586481
1.62126466259725,-1.8142973534372,0.0308151093439364
1.66766970648865,-1.8541764589017,0.0318091451292246
1.712646793568,-1.89162779722607,0.0328031809145129
1.75620562897586,-1.92664780885447,0.0337972166998012
1.79827495919397,-1.95922878896402,0.0347912524850895
1.83882349681538,-1.9893519025433,0.0357852882703777
1.87785676696786,-2.01702338978907,0.036779324055666
1.91537017717231,-2.04227351219554,0.0377733598409543
1.95131987993533,-2.06513286529041,0.0387673956262425
1.98576571215955,-2.08559820569859,0.0397614314115308
2.01869262570078,-2.10375866819089,0.0407554671968191
2.05012619311199,-2.11963532734528,0.0417495029821074
2.08013411573868,-2.1332777030741,0.0427435387673956
2.10870642625057,-2.14481943262928,0.0437375745526839
2.13589036866381,-2.15428520580075,0.0447316103379722
2.16175091462618,-2.16169559306066,0.0457256461232604
2.18629353756528,-2.16716024095972,0.0467196819085487
2.20950789949392,-2.17082366632509,0.047713717693837
2.23147233794759,-2.17263879959104,0.0487077534791252
2.25221803395989,-2.17272466344102,0.0497017892644135
2.27176823487723,-2.17129845716532,0.0506958250497018
2.29015327793831,-2.16838317986298,0.0516898608349901
2.30741541064397,-2.16404068459493,0.0526838966202783
2.32362299285348,-2.15839640490278,0.0536779324055666
2.33877336332089,-2.1515537491243,0.0546719681908549
2.35291521136629,-2.14355541507742,0.0556660039761431
2.36610752043911,-2.1345500325512,0.0566600397614314
2.37835698358024,-2.12456536159959,0.0576540755467197
2.38969740023405,-2.11372498500441,0.058648111332008
2.40021080281685,-2.10217725199486,0.0596421471172962
2.40989187437354,-2.09002523160192,0.0606361829025845
2.41875212887692,-2.07738599349886,0.0616302186878728
2.42686250620132,-2.06439797369163,0.062624254473161
2.43425120169773,-2.05112447455332,0.0636182902584493
2.4408883024372,-2.03764363714519,0.0646123260437376
2.44686659379355,-2.02409595446633,0.0656063618290258
2.45218292005114,-2.01050826639739,0.0666003976143141
2.45682183308305,-1.99698212069367,0.0675944333996024
2.4607999773637,-1.98362353810557,0.0685884691848907
2.46420952991501,-1.97047924735052,0.0695825049701789
2.46707427251539,-1.95762720517181,0.0705765407554672
2.46937825636951,-1.94520955986711,0.0715705765407555
2.47116794989512,-1.93319914952101,0.0725646123260437
2.47251452653186,-1.92165443141169,0.073558648111332
2.47345347117322,-1.91068416688337,0.0745526838966203
2.47405896480337,-1.900256798948,0.0755467196819085
2.4744014057238,-1.89046543817297,0.0765407554671968
2.4745194467805,-1.88132685334143,0.0775347912524851
2.47447905317607,-1.87276830445125,0.0785288270377734
2.47433831315157,-1.86491157604828,0.0795228628230616
2.47416848305849,-1.85778905431335,0.0805168986083499
2.47406646979104,-1.85135410604731,0.0815109343936382
2.47411460726169,-1.84562741084558,0.0825049701789264
2.47435001466072,-1.84060554888876,0.0834990059642147
2.47483305052847,-1.8362191776299,0.084493041749503
2.47563408393911,-1.83250269707365,0.0854870775347912
2.47684978975596,-1.82946609523967,0.0864811133200795
2.47847149469207,-1.82702218890733,0.0874751491053678
2.48054771789777,-1.82519991805894,0.0884691848906561
2.48314617485258,-1.82396216352072,0.0894632206759443
2.48632291644344,-1.82319290355121,0.0904572564612326
2.49011198678451,-1.82291963120804,0.0914512922465209
2.49456919412737,-1.82310245247907,0.0924453280318091
2.49974579279266,-1.82362840913775,0.0934393638170974
2.505713824827,-1.82452510268271,0.0944333996023857
2.51250291184302,-1.82569328804537,0.095427435387674
2.52013988973154,-1.82705924107437,0.0964214711729622
2.5286815905724,-1.82860110371341,0.0974155069582505
2.53817843668718,-1.83023752183662,0.0984095427435388
2.5486921065531,-1.83188983623954,0.099403578528827
2.56019184438959,-1.83345736788464,0.100397614314115
2.57271701826352,-1.83491254921848,0.101391650099404
2.58627749250704,-1.83615744601999,0.102385685884692
2.60087833714551,-1.83710434496727,0.10337972166998
2.61650139352195,-1.83765269818726,0.104373757455268
2.63318005242379,-1.83771165731667,0.105367793240557
2.65082562000407,-1.8372069312267,0.106361829025845
2.66945219605996,-1.83609992507745,0.107355864811133
2.68908126726735,-1.83423409965294,0.108349900596421
2.70967154880942,-1.83156914062753,0.10934393638171
2.73118010605736,-1.82805456617088,0.110337972166998
2.75359969729373,-1.82360593672771,0.111332007952286
2.77686855336332,-1.81821681119942,0.112326043737575
2.80103100491232,-1.81186344330551,0.113320079522863
2.82601444805541,-1.80449725684377,0.114314115308151
2.85177780744009,-1.79606884043726,0.115308151093439
2.8782886562031,-1.78655534543167,0.116302186878728
2.90548568055067,-1.77595305623007,0.117296222664016
2.93328979497531,-1.76422132910053,0.118290258449304
2.96164106296026,-1.75134805012054,0.119284294234592
2.99047670935215,-1.73738332231579,0.120278330019881
3.01971110542236,-1.72224100368912,0.121272365805169
3.04925619088638,-1.70599221477384,0.122266401590457
3.07903885479691,-1.68863702162918,0.123260437375746
3.10893162846088,-1.67018307461762,0.124254473161034
3.13884042028255,-1.65063554617722,0.125248508946322
3.16867667539141,-1.63005434913914,0.12624254473161
3.1983398258824,-1.60842559152217,0.127236580516899
3.22779261977061,-1.58576770751252,0.128230616302187
3.25692727824639,-1.56210199558604,0.129224652087475
3.28566952569376,-1.53747948698307,0.130218687872763
3.31396816109816,-1.51195518616132,0.131212723658052
3.34178278697131,-1.4855953890772,0.13220675944334
3.36911903691641,-1.45848160681483,0.133200795228628
3.39588148208496,-1.43065753257338,0.134194831013916
3.42205804615701,-1.40215388156116,0.135188866799205
3.44761408243133,-1.37305349128561,0.136182902584493
3.47247886312509,-1.34346248251214,0.137176938369781
3.49662179879215,-1.31349440269647,0.13817097415507
3.52006658029499,-1.28320099783597,0.139165009940358
3.54268915316446,-1.25271479270498,0.140159045725646
3.5645296731133,-1.22209470599066,0.141153081510934
3.58551862040629,-1.19141076404157,0.142147117296223
3.60554158851704,-1.16081243181393,0.143141153081511
3.62458809042928,-1.13033368218668,0.144135188866799
3.64264997124831,-1.10010950684755,0.145129224652087
3.65965906472925,-1.07033225932079,0.146123260437376
3.6756051840571,-1.04107270924692,0.147117296222664
3.69048209174923,-1.01237555031014,0.148111332007952
3.70427269815132,-0.984529241806882,0.149105367793241
3.7170321063737,-0.957577562612638,0.150099403578529
3.7287431021831,-0.931472823167315,0.151093439363817
3.73941629366885,-0.906399611027007,0.152087475149105
3.74910455790798,-0.882503001163483,0.153081510934394
3.75777225011609,-0.859793433046538,0.154075546719682
3.76548535605777,-0.83841713338931,0.15506958250497
3.77227673977317,-0.818470889510337,0.156063618290258
3.77817919403454,-0.799898425641945,0.157057654075547
3.78324207840956,-0.782850022577917,0.158051689860835
3.78747658295135,-0.767259874577618,0.159045725646123
3.79082569028906,-0.753200481906637,0.160039761431412
3.79336178553019,-0.740671794426667,0.1610337972167
3.79506354047099,-0.729733632920991,0.162027833001988
3.79589583328631,-0.720362226527417,0.163021868787276
3.79584131866551,-0.712586020543332,0.164015904572565
3.794959509776,-0.706365432654202,0.165009940357853
3.79319670304794,-0.701761599910385,0.166003976143141
3.79054818484741,-0.698840417486835,0.166998011928429
3.78703716953673,-0.69757777722252,0.167992047713718
3.78267564883781,-0.697940665894142,0.168986083499006
3.77739313129452,-0.699983948684621,0.169980119284294
3.77118922928423,-0.703644017174768,0.170974155069582
3.76409635893501,-0.708848781459416,0.171968190854871
3.75612876629579,-0.71557899853918,0.172962226640159
3.74724962018813,-0.723833129442103,0.173956262425447
3.73743732913767,-0.733528276364646,0.174950298210736
3.72662004654273,-0.744592545249654,0.175944333996024
3.71474616215575,-0.75693811269102,0.176938369781312
3.70182291191618,-0.770531783994488,0.1779324055666
3.68780904597361,-0.78532554746415,0.178926441351889
3.67259451524585,-0.801119176048191,0.179920477137177
3.65614121084012,-0.817751610849709,0.180914512922465
3.63834868915517,-0.835171120954512,0.181908548707753
3.61917457026974,-0.853253482864624,0.182902584493042
3.5986037688493,-0.871764448948918,0.18389662027833
3.57655307338305,-0.890657991289538,0.184890656063618
3.55299874710438,-0.909803430822728,0.185884691848907
3.52789534831551,-0.928980619388414,0.186878727634195
3.50130771456857,-0.948054648404388,0.187872763419483
3.47317126900504,-0.966916244352016,0.188866799204771
3.44351212116034,-0.985364664807967,0.18986083499006
3.41237566655122,-1.00333683073518,0.190854870775348
3.37976545653191,-1.02064388325114,0.191848906560636
3.34570145436805,-1.03716195423823,0.192842942345924
3.31018661701294,-1.05278305562164,0.193836978131213
3.27326224611908,-1.06729785497936,0.194831013916501
3.2349200195353,-1.08066855739791,0.195825049701789
3.19522243462476,-1.09273142382953,0.196819085487078
3.15418586049622,-1.10338450977839,0.197813121272366
3.11181074054479,-1.11254335916474,0.198807157057654
3.06811899680564,-1.12011949765055,0.199801192842942
3.02322655710245,-1.12598683258641,0.200795228628231
2.97713535634372,-1.13006928492366,0.201789264413519
2.92984085100045,-1.13233007204476,0.202783300198807
2.88147674548133,-1.13264738238343,0.203777335984095
2.8320965693869,-1.1309555783218,0.204771371769384
2.78177497700631,-1.12722077869746,0.205765407554672
2.73070629582901,-1.12136584741628,0.20675944333996
2.67895308790927,-1.11331306820059,0.207753479125248
2.62657830755502,-1.10311059343695,0.208747514910537
2.57370431705479,-1.09066704529393,0.209741550695825
2.52047520304469,-1.07595704927558,0.210735586481113
2.46698803065435,-1.05892320455863,0.211729622266402
2.4134412414727,-1.03949366996178,0.21272365805169
2.35986178046557,-1.01763628223008,0.213717693836978
2.30634314083916,-0.99335324187449,0.214711729622266
2.25298281155597,-0.966673448332607,0.215705765407555
2.19987221935187,-0.937605423957395,0.216699801192843
2.14706961674415,-0.906100065199104,0.217693836978131
2.09464916712651,-0.872186333743882,0.218687872763419
2.04263635945984,-0.835962301490561,0.219681908548708
1.99109302151079,-0.797350328528449,0.220675944333996
1.9400643017677,-0.756502864963251,0.221669980119284
1.88960745757147,-0.713430544740358,0.222664015904573
1.83977712329801,-0.668181806158317,0.223658051689861
1.7907311057666,-0.620844435213787,0.224652087475149
1.74248912345889,-0.571519204894479,0.225646123260437
1.69511181602031,-0.520315326981727,0.226640159045726
1.64869954851801,-0.467345894041146,0.227634194831014
1.60325104858062,-0.412763904373581,0.228628230616302
1.5588727897189,-0.356631746970384,0.22962226640159
1.51556469294119,-0.299075052093495,0.230616302186879
1.47331330696119,-0.240204011013443,0.231610337972167
1.43210143420916,-0.180148843744025,0.232604373757455
1.39183947320509,-0.118901047640968,0.233598409542744
1.35252300564086,-0.0566266939854561,0.234592445328032
1.31403099200859,0.00654195951903793,0.23558648111332
1.27626826899362,0.070501105806401,0.236580516898608
1.23919849238001,0.135181467613031,0.237574552683897
1.20272602804214,0.200532929406362,0.238568588469185
1.16668270180306,0.266412784919844,0.239562624254473
1.13098906943184,0.332733927812473,0.240556660039761
1.09556685977023,0.399386646503445,0.24155069582505
1.06032738015095,0.466215103002763,0.242544731610338
1.02527089734896,0.533146024813915,0.243538767395626
0.990361828818733,0.600033060565798,0.244532803180915
0.955510045757967,0.666751878951475,0.245526838966203
0.920702236066594,0.733291431780821,0.246520874751491
0.885962021264702,0.799467989651414,0.247514910536779
0.851259576010593,0.865132109976494,0.248508946322068
0.816538501547089,0.930326657352144,0.249502982107356
0.781704259575774,0.994859953810531,0.250497017892644
0.746783125174942,1.05855090406804,0.251491053677932
0.711738607610994,1.12135347025578,0.252485089463221
0.67652304189527,1.18316307744253,0.253479125248509
0.641142742614997,1.24376771014523,0.254473161033797
0.60555588954172,1.30319026292235,0.255467196819085
0.569727971078307,1.36131102936632,0.256461232604374
0.533663495579879,1.41788308863087,0.257455268389662
0.497319832586078,1.47292793175745,0.25844930417495
0.46072808064776,1.52620841071998,0.259443339960239
0.42400191295213,1.57768111654331,0.260437375745527
0.387160936363542,1.62733709810015,0.261431411530815
0.350251675006292,1.67512877330125,0.262425447316103
0.313358600910334,1.7209950619951,0.263419483101392
0.276574811085909,1.76494395541254,0.26441351888668
0.239940889192973,1.80688330642682,0.265407554671968
0.203488780971346,1.84687504488273,0.266401590457256
0.167284726787306,1.88499757680733,0.267395626242545
0.13137649071676,1.92126973962133,0.268389662027833
0.095808750586849,1.95573876785935,0.269383697813121
0.0606366751680768,1.98844371967476,0.27037773359841
0.0258332272775841,2.01943682841736,0.271371769383698
-0.00855055905065964,2.04872424377604,0.272365805168986
-0.0425982812719858,2.07631309081388,0.273359840954274
-0.0763020563360436,2.10234847426688,0.274353876739563
-0.109634733407236,2.12685064911112,0.275347912524851
-0.142585751135614,2.1498559449124,0.276341948310139
-0.175193569187367,2.17141179181507,0.277335984095427
-0.207436313084013,2.19163898899934,0.278330019880716
-0.239278506704294,2.21059632820927,0.279324055666004
-0.27066594339602,2.22822836105627,0.280318091451292
-0.30157349265502,2.24455403255613,0.281312127236581
-0.331961417284868,2.25966782254042,0.282306163021869
-0.361831295945209,2.27358963884722,0.283300198807157
-0.391167338168537,2.28625962473012,0.284294234592445
-0.41992281509139,2.29777601432434,0.285288270377734
-0.448101337416449,2.3081576937014,0.286282306163022
-0.475636235657988,2.31744451095945,0.28727634194831
-0.50258578781046,2.32561444050765,0.288270377733598
-0.528906934442031,2.33275995769839,0.289264413518887
-0.554641935795414,2.33886756920497,0.290258449304175
-0.57981505808968,2.34403585932945,0.291252485089463
-0.604363699906792,2.34830066128082,0.292246520874752
-0.628338773150079,2.35170086501878,0.29324055666004
-0.651705256478256,2.35428817509344,0.294234592445328
-0.674532292042537,2.35605782459877,0.295228628230616
-0.696747442800264,2.35715775973091,0.296222664015905
-0.718387990413153,2.35754301991056,0.297216699801193
-0.739414896959497,2.35730894575355,0.298210735586481
-0.759787890736684,2.35652058004463,0.299204771371769
-0.779522309236479,2.3552106023747,0.300198807157058
-0.798645070780208,2.35338356721617,0.301192842942346
-0.81713883294547,2.35109312034193,0.302186878727634
-0.8348856299665,2.34844520567636,0.303180914512922
-0.851980428095591,2.34539909774259,0.304174950298211
-0.868400570349324,2.34193513381937,0.305168986083499
-0.884238404735253,2.33813010838405,0.306163021868787
-0.899554336217826,2.33401071865523,0.307157057654076
-0.91434222331462,2.32955536246286,0.308151093439364
-0.928609249853265,2.32485806531804,0.309145129224652
-0.942424310886821,2.31985902118326,0.31013916500994
-0.955829103314921,2.31459550203052,0.311133200795229
-0.968835513300484,2.30902033780914,0.312127236580517
-0.981510455165667,2.30311664280654,0.313121272365805
-0.993884813910458,2.29687791802905,0.314115308151093
-1.00589438902667,2.29030990560399,0.315109343936382
-1.01754788148859,2.28342967722099,0.31610337972167
-1.02886050537003,2.27625512546112,0.317097415506958
-1.03975433124282,2.26867689499466,0.318091451292247
-1.0501810791308,2.26070336720203,0.319085487077535
-1.06008694686283,2.25242741643223,0.320079522862823
-1.06945695348869,2.24375949782364,0.321073558648111
-1.0782490725353,2.2347212892394,0.3220675944334
-1.08643236323914,2.22534258217547,0.323061630218688
-1.09402002747589,2.21557416575232,0.324055666003976
-1.10107450658674,2.20546926006796,0.325049701789264
-1.10753725948865,2.19504069074436,0.326043737574553
-1.11342397851115,2.18429961443386,0.327037773359841
-1.11874402634885,2.17327391122247,0.328031809145129
-1.12349557833729,2.16198218450065,0.329025844930417
-1.12776067132726,2.15039282076816,0.330019880715706
-1.13153417836799,2.13851863423357,0.331013916500994
-1.13475751280048,2.1263194925659,0.332007952286282
-1.13746066332052,2.11386512314896,0.333001988071571
-1.13962444820613,2.10102084228869,0.333996023856859
-1.14125803577086,2.08783269258854,0.334990059642147
-1.14228890092301,2.07429466364137,0.335984095427435
-1.14269207692656,2.06043304112799,0.336978131212724
-1.14248169649977,2.04622897223895,0.337972166998012
-1.14166236798225,2.03164573746092,0.3389662027833
-1.14015502582483,2.0167112367331,0.339960238568588
-1.13791782253412,2.00144733722927,0.340954274353877
-1.13499131133047,1.98583075269733,0.341948310139165
-1.13137873425614,1.96990887890034,0.342942345924453
-1.12711375215269,1.95369514820049,0.343936381709742
-1.12223333825039,1.93722282259255,0.34493041749503
-1.11674817311829,1.92052597353575,0.345924453280318
-1.11070388469437,1.90354760120051,0.346918489065606
-1.10421105966033,1.8863945538731,0.347912524850895
-1.09729014824169,1.86912667790918,0.348906560636183
-1.08997266253412,1.85166779419038,0.349900596421471
-1.08227000949903,1.83411382263358,0.350894632206759
-1.07429424474542,1.81652404431292,0.351888667992048
-1.066073939658,1.79890544873332,0.352882703777336
-1.05766206074449,1.78131837332091,0.353876739562624
-1.04910977576287,1.76380352756547,0.354870775347913
-1.04048064266034,1.74637312042984,0.355864811133201
-1.03176684528519,1.72908072713785,0.356858846918489
-1.02304961676059,1.71204538592734,0.357852882703777
-1.01434657621579,1.69522335019211,0.358846918489066
-1.00574772899757,1.67878848079746,0.359840954274354
-0.997332188410232,1.66269450984084,0.360834990059642
-0.989173167968122,1.64691064726577,0.36182902584493
-0.981299742404544,1.63148053088266,0.362823061630219
-0.97376547640871,1.61639153780016,0.363817097415507
