Drag (N),Lift (N),Time (s)
0.746562991677249,0.034122985374711,0
0.802073586002665,-0.0146673741357491,0.000954653937947494
0.856125500344014,-0.0605774133338883,0.00190930787589499
0.908691073897859,-0.103650499916345,0.00286396181384248
0.959786814591563,-0.143955147687763,0.00381861575178998
1.00940122377442,-0.18144526183814,0.00477326968973747
1.05753097273843,-0.21612480486522,0.00572792362768496
1.10418753522022,-0.247995480027166,0.00668257756563246
1.14934106748723,-0.277102440506188,0.00763723150357995
1.19299682552135,-0.303463341949523,0.00859188544152745
1.23509276109425,-0.327091620152416,0.00954653937947494
1.27574198310267,-0.348036581021848,0.0105011933174224
1.31485300482513,-0.366351075513652,0.0114558472553699
1.35240152177423,-0.382093034506288,0.0124105011933174
1.38845307732383,-0.395326308094262,0.0133651551312649
1.42299983636442,-0.406117977258931,0.0143198090692124
1.45617530366321,-0.414489653225046,0.0152744630071599
1.48789305378251,-0.420483394504786,0.0162291169451074
1.51813942722541,-0.42425408069421,0.0171837708830549
1.54691557755261,-0.425915599088557,0.0181384248210024
1.57432231638776,-0.425518974762283,0.0190930787589499
1.60040430091959,-0.423140968031649,0.0200477326968974
1.6251962398544,-0.418895379639527,0.0210023866348449
1.64871122549317,-0.412833376537013,0.0219570405727924
1.67093788829222,-0.405119225995728,0.0229116945107399
1.69198107031045,-0.395824234656486,0.0238663484486874
1.7118812001235,-0.38515897124706,0.0248210023866348
1.73069283988237,-0.37326406069509,0.0257756563245823
1.74840802075058,-0.360121522412606,0.0267303102625298
1.76504529285042,-0.345913646871534,0.0276849642004773
1.78065833033443,-0.330666575799479,0.0286396181384248
1.79527508369174,-0.314533401128383,0.0295942720763723
1.80891511605227,-0.297682533927762,0.0305489260143198
1.82151230092694,-0.280234186444293,0.0315035799522673
1.83306976809934,-0.262316272185802,0.0324582338902148
1.84373523393457,-0.243945158089872,0.0334128878281623
1.85339214018866,-0.225288161471428,0.0343675417661098
1.86201305942573,-0.206486056291473,0.0353221957040573
1.86963021279382,-0.187506952294311,0.0362768496420048
1.87635964560014,-0.168461120306436,0.0372315035799523
1.88214226056455,-0.14940594835923,0.0381861575178998
1.88693950565879,-0.130436755160012,0.0391408114558473
1.8907206997571,-0.11157235558288,0.0400954653937948
1.89358519596226,-0.0928497080253219,0.0410501193317422
1.8956261921272,-0.0742547835475359,0.0420047732696897
1.89684716034535,-0.0558761793594947,0.0429594272076372
1.89721814351974,-0.0377249593130983,0.0439140811455847
1.89679695827342,-0.019818239628449,0.0448687350835322
1.8956385495253,-0.00216649238882008,0.0458233890214797
1.89377187152262,0.0150652918565298,0.0467780429594272
1.89125305407461,0.0319607110522735,0.0477326968973747
1.8881381660564,0.0485355353782734,0.0486873508353222
1.88447935902095,0.0647063579272339,0.0496420047732697
1.8803544732713,0.0804588133313098,0.0505966587112172
1.87580973841083,0.0956973512783304,0.0515513126491647
1.87091785891325,0.110425319518775,0.0525059665871122
1.86578877297286,0.12464302722649,0.0534606205250597
1.86050611236092,0.138304035135649,0.0544152744630072
1.85521590415046,0.151394863819645,0.0553699284009547
1.84997368262722,0.16390558383165,0.0563245823389022
1.84484361794219,0.175769865094741,0.0572792362768496
1.83991630345309,0.187070030150104,0.0582338902147971
1.83532572534718,0.197896724640275,0.0591885441527446
1.83116137211919,0.208274947281753,0.0601431980906921
1.82744515108824,0.218238591607137,0.0610978520286396
1.82427450296221,0.227910155327239,0.0620525059665871
1.82171955051547,0.237283341749542,0.0630071599045346
1.81985127188168,0.246420923174782,0.0639618138424821
1.81877897204044,0.255499622767832,0.0649164677804296
1.81852576830514,0.264616643136863,0.0658711217183771
1.81919527004607,0.273865805920035,0.0668257756563246
1.82080831794117,0.283459877853346,0.0677804295942721
1.82344880495893,0.293527277035955,0.0687350835322196
1.82718765174181,0.30423576752863,0.0696897374701671
1.83205570244929,0.315621032829335,0.0706443914081146
1.83808092028321,0.327790733752795,0.0715990453460621
1.84531795005225,0.340886610576944,0.0725536992840096
1.85376904486568,0.355066507320792,0.073508353221957
1.86344647682711,0.370358161937645,0.0744630071599045
1.87432372476179,0.386889415523961,0.075417661097852
1.88634940707301,0.404835075409622,0.0763723150357995
1.89953742762954,0.424257234114037,0.077326968973747
1.9137892412099,0.445334055084673,0.0782816229116945
1.92906832132737,0.468032837429586,0.079236276849642
1.94524533674598,0.492590441417211,0.0801909307875895
1.96219463304303,0.519061802974987,0.081145584725537
1.97984876963372,0.547529231340227,0.0821002386634845
1.99818316650305,0.578189825516455,0.083054892601432
2.0171166533562,0.611133509591555,0.0840095465393795
2.03645300629937,0.646465892618228,0.084964200477327
2.05601382647599,0.684289307461386,0.0859188544152745
2.07577417819592,0.724669205276078,0.086873508353222
2.09558725486211,0.767763947053478,0.0878281622911695
2.11532118261042,0.813622605357736,0.0887828162291169
2.13484649115143,0.862339229602052,0.0897374701670644
2.1540041806408,0.913913039465424,0.0906921241050119
2.17269749758168,0.968369245275494,0.0916467780429594
2.19079891501298,1.02582195342648,0.0926014319809069
2.20822085141903,1.08618929378187,0.0935560859188544
2.22488380046832,1.14941874705303,0.0945107398568019
2.24065882802666,1.21545884531465,0.0954653937947494
2.2554413974034,1.28422299049794,0.0964200477326969
2.26918329060695,1.35563119703458,0.0973747016706444
2.28177854588426,1.42957522754955,0.0983293556085919
2.29317937905316,1.50593357192471,0.0992840095465394
2.30326832771396,1.58450167271687,0.100238663484487
2.31201903954345,1.66518501171701,0.101193317422434
2.31932804026814,1.74780608848638,0.102147971360382
2.32516265204409,1.83211628028504,0.103102625298329
2.32940837019948,1.91797230480935,0.104057279236277
2.33198696903185,2.00513201795308,0.105011933174224
2.33292055959436,2.09346620674682,0.105966587112172
2.33207114304843,2.18270733155484,0.106921241050119
2.32955732401021,2.27264652202586,0.107875894988067
2.32525889797994,2.36313308274505,0.108830548926014
2.31916490324017,2.4539445238359,0.109785202863962
2.31126338937352,2.54491668670581,0.110739856801909
2.30153444270903,2.63580400925278,0.111694510739857
2.28999122458405,2.7262513281924,0.112649164677804
2.27653021003562,2.81617062165295,0.113603818615752
2.26118972520047,2.9053511146497,0.114558472553699
2.24401485982717,2.99357458413234,0.115513126491647
2.22503644487906,3.08056100392331,0.116467780429594
2.20412125737391,3.1660263118982,0.117422434367542
2.18137370174828,3.2498289404297,0.118377088305489
2.15686449134494,3.33178252352478,0.119331742243437
2.13059921479811,3.41157746268378,0.120286396181384
2.10251721512551,3.48917986441719,0.121241050119332
2.0726417594707,3.56448298458422,0.122195704057279
2.04112448014427,3.63717371753806,0.123150357995227
2.00798253223455,3.70715991724177,0.124105011933174
1.97322620399678,3.77426319985471,0.125059665871122
1.93701536721377,3.83841112191864,0.126014319809069
1.89947998964868,3.89941449091395,0.126968973747017
1.86074052388772,3.95721029077495,0.127923627684964
1.8208525287782,4.011710881514,0.128878281622912
1.77991401476687,4.06275430421729,0.129832935560859
1.738103699876,4.11032339875099,0.130787589498807
1.69552302629759,4.15446199675948,0.131742243436754
1.65225206770126,4.19496935899941,0.132696897374702
1.60831677584872,4.23191935795166,0.133651551312649
1.56372525041884,4.26532474734869,0.134606205250597
1.51856749372126,4.29532702756222,0.135560859188544
1.4729771981307,4.32185279191439,0.136515513126492
1.42687194505095,4.3449844587426,0.137470167064439
1.38010417623676,4.3647797078405,0.138424821002387
1.33277414733755,4.38133432289477,0.139379474940334
1.2849263944898,4.39484919058194,0.140334128878282
1.23651510444119,4.40542008319191,0.141288782816229
1.18759183928799,4.41323689642415,0.142243436754177
1.13807203410919,4.41864881106189,0.143198090692124
1.08789095799418,4.42180792303016,0.144152744630072
1.03707047188709,4.42285401833736,0.145107398568019
0.985563054005331,4.42207014824878,0.146062052505967
0.933337705096845,4.4198059506998,0.147016706443914
0.880380414748789,4.41627101052644,0.147971360381862
0.826737215292204,4.41175499526499,0.148926014319809
0.77220870109673,4.40660125813236,0.149880668257757
0.716714342433237,4.40109165009528,0.150835322195704
0.66015547376372,4.39541662122109,0.151789976133652
0.602552528747918,4.38989725422207,0.152744630071599
0.54383711285973,4.38474650393332,0.153699284009547
0.483896319900007,4.3801588613326,0.154653937947494
0.422666111567651,4.37637253578294,0.155608591885442
0.360144484321017,4.37352406174077,0.156563245823389
0.296275354956416,4.37182022267975,0.157517899761337
0.231097737163761,4.37143421339964,0.158472553699284
0.164591318543816,4.37256440397464,0.159427207637232
0.0967329257248556,4.37534793505075,0.160381861575179
0.0275356843570924,4.37988970553609,0.161336515513126
-0.0429594782211662,4.38631156438349,0.162291169451074
-0.114722908174532,4.39471412904076,0.163245823389021
-0.187704279589578,4.4051181359233,0.164200477326969
-0.261887608166737,4.41753805477973,0.165155131264916
-0.337187607893222,4.43212704465288,0.166109785202864
-0.413431481256547,4.44895490296142,0.167064439140811
-0.490610484952326,4.46816522129111,0.168019093078759
-0.568628190883238,4.48977513479361,0.168973747016706
-0.647349602719922,4.5138587847066,0.169928400954654
-0.726683695902171,4.54051897674651,0.170883054892601
-0.806400422183866,4.56982294550901,0.171837708830549
-0.88633721389307,4.60166799613727,0.172792362768496
-0.966451171424468,4.63607953763,0.173747016706444
-1.04653247555333,4.67309817114698,0.174701670644391
-1.12641624709947,4.71271442782711,0.175656324582339
-1.20586112819765,4.75483566941229,0.176610978520286
-1.28472578622294,4.79948377764966,0.177565632458234
-1.36288378815354,4.84651063171595,0.178520286396181
-1.44020001928055,4.89572308152012,0.179474940334129
-1.51651643462074,4.94699214491456,0.180429594272076
-1.5916329922276,5.00019901356778,0.181384248210024
-1.66536210942868,5.05517806271129,0.182338902147971
-1.73759185612596,5.11182446920728,0.183293556085919
-1.80820687153134,5.16991399853703,0.184248210023866
-1.87710509919807,5.22926116383192,0.185202863961814
-1.94412333289863,5.28977324096068,0.186157517899761
-2.00909665266279,5.35131546854343,0.187112171837709
-2.07203817257409,5.413837477013,0.188066825775656
-2.13289494665509,5.47713907551714,0.189021479713604
-2.19174961304894,5.54115156479177,0.189976133651551
-2.24858906160335,5.605750183253,0.190930787589499
-2.3033706200918,5.67091334366961,0.191885441527446
-2.35613433736794,5.73659405200467,0.192840095465394
-2.40691182272952,5.8026990579188,0.193794749403341
-2.45576582030975,5.8692293401487,0.194749403341289
-2.5028207104435,5.93610209120253,0.195704057279236
-2.54811480548717,6.00335289010404,0.196658711217184
-2.59172343561001,6.07083845900725,0.197613365155131
-2.63371461061062,6.13846442278703,0.198568019093079
-2.6742275447365,6.20619762460111,0.199522673031026
-2.71319426343294,6.2739334444887,0.200477326968974
-2.75070597525402,6.34165708590666,0.201431980906921
-2.78690747502977,6.40909483875105,0.202386634844869
-2.82184414154602,6.4762887655923,0.203341288782816
-2.85575402669536,6.54318760091934,0.204295942720764
-2.88864051449523,6.60962204314784,0.205250596658711
-2.92066975165466,6.67548512019062,0.206205250596659
-2.9519992924482,6.74058127758969,0.207159904534606
-2.98285918265507,6.80485850872432,0.208114558472554
-3.01330554414564,6.86834914813702,0.209069212410501
-3.04334120172885,6.93087210313245,0.210023866348449
-3.07307190572037,6.99232518129674,0.210978520286396
-3.10274637951298,7.05260763160861,0.211933174224344
-3.13253915265787,7.11171787505909,0.212887828162291
-3.16236480070326,7.16975359611985,0.213842482100239
-3.19233538156239,7.22652830069205,0.214797136038186
-3.222622903358,7.28203597544234,0.215751789976134
-3.25338629348714,7.33643104503048,0.216706443914081
-3.28452672526866,7.38949961230001,0.217661097852029
-3.31610688860248,7.44127546703449,0.218615751789976
-3.3484053445956,7.49182290718956,0.219570405727924
-3.38143997976281,7.54119376177725,0.220525059665871
-3.41517001276872,7.58937267757226,0.221479713603819
-3.44978496768507,7.6363365303991,0.222434367541766
-3.4854999749909,7.68227937455372,0.223389021479714
-3.52230012590035,7.72720926473492,0.224343675417661
-3.56020697299261,7.77110594932848,0.225298329355609
-3.59948100919964,7.81407526889187,0.226252983293556
-3.64015805779632,7.85613050958899,0.227207637231504
-3.68227644936506,7.89713232045362,0.228162291169451
-3.72588754826613,7.93722978327959,0.229116945107399
-3.77103753774759,7.97637971312051,0.230071599045346
-3.81755775567571,8.01447765662113,0.231026252983294
-3.86538048185106,8.05146212133352,0.231980906921241
-3.91463593644351,8.08741556672418,0.232935560859189
-3.96509246432399,8.12219271605591,0.233890214797136
-4.01647103269953,8.15572850253158,0.234844868735084
-4.0687930056951,8.188001362301,0.235799522673031
-4.12189898547372,8.2188365662104,0.236754176610979
-4.17558071365544,8.2481040618508,0.237708830548926
-4.2297614320237,8.27577632121041,0.238663484486873
-4.28416237962775,8.30170200124652,0.239618138424821
-4.33852456392118,8.32572588365335,0.240572792362769
-4.39274720747227,8.34783986644507,0.241527446300716
-4.44659242983096,8.3679496233085,0.242482100238664
-4.49985464656733,8.38582932863347,0.243436754176611
-4.55238838132717,8.40147814738408,0.244391408114558
-4.60405902053452,8.41477057612336,0.245346062052506
-4.65449473196064,8.42557330513896,0.246300715990453
-4.70354123847956,8.43374234788111,0.247255369928401
-4.75097920470621,8.4393553650619,0.248210023866348
-4.79665372582079,8.44224991652257,0.249164677804296
-4.84035195347538,8.44249087487467,0.250119331742243
-4.88185736795878,8.44001546839365,0.251073985680191
-4.92102322476964,8.43467590381226,0.252028639618138
-4.9577197092753,8.42659325943748,0.252983293556086
-4.9917284072247,8.41569403106013,0.253937947494033
-5.02290641996289,8.40195436907922,0.254892601431981
-5.0511299706126,8.38534084051185,0.255847255369928
-5.076250739118,8.36588148561124,0.256801909307876
-5.09821408478729,8.34356826348055,0.257756563245823
-5.11694090511686,8.31835856956102,0.258711217183771
-5.13232200435321,8.29029692117742,0.259665871121718
-5.14426124380941,8.25944599167594,0.260620525059666
-5.15271728495534,8.22583399328107,0.261575178997613
-5.15768337873505,8.18937465544515,0.262529832935561
-5.15918173817509,8.15017067662826,0.263484486873508
-5.15709348810808,8.10814633486252,0.264439140811456
-5.15139808812812,8.06336223483106,0.265393794749403
-5.14213753694875,8.01588349632777,0.266348448687351
-5.12930505233801,7.96564993751787,0.267303102625298
-5.11298661200797,7.91267443786156,0.268257756563246
-5.09318913632546,7.85712056689186,0.269212410501193
-5.06986221304759,7.79901071970496,0.270167064439141
-5.04315315796745,7.73842076416273,0.271121718377088
-5.01312325945566,7.67542561152191,0.272076372315036
-4.9798628850102,7.61017358944575,0.273031026252983
-4.94348204807009,7.54273869251959,0.273985680190931
-4.9040232949068,7.47328754490209,0.274940334128878
-4.86157415679192,7.4020041098948,0.275894988066826
-4.81628941535379,7.32905119075012,0.276849642004773
-4.76831206978626,7.25451075785028,0.277804295942721
-4.71775121880347,7.17860918331599,0.278758949880668
-4.66479225703823,7.10145745641611,0.279713603818616
-4.60956139468205,7.02327738078136,0.280668257756563
-4.55223703180167,6.94423724424113,0.281622911694511
-4.49300129088721,6.86442288956912,0.282577565632458
-4.43208551449129,6.78404901251991,0.283532219570406
-4.36957834144693,6.70317641469536,0.284486873508353
-4.30567635052725,6.62189854124295,0.285441527446301
-4.24048139839931,6.54044059059833,0.286396181384248
-4.17414747670138,6.45895826607615,0.287350835322196
-4.10683347587416,6.37747757870908,0.288305489260143
-4.03870955649385,6.29620233366188,0.289260143198091
-3.96997521270114,6.21527416901642,0.290214797136038
-3.90077937039187,6.13476865242196,0.291169451073986
-3.83122812577627,6.05480438236459,0.292124105011933
-3.76155489663756,5.97554585972865,0.293078758949881
-3.69191858170118,5.89712806521629,0.294033412887828
-3.62245971206248,5.81970731212284,0.294988066825776
-3.55334221155717,5.74345085558971,0.295942720763723
-3.48482221975551,5.66844028920313,0.296897374701671
-3.41706933462413,5.59483057816457,0.297852028639618
-3.3502391000864,5.52285884408131,0.298806682577566
-3.28454138906364,5.45257373629044,0.299761336515513
-3.22010441146063,5.38402496032395,0.300715990453461
-3.15710141963844,5.31738482457455,0.301670644391408
-3.09566230761206,5.25282185036181,0.302625298329356
-3.03587641278786,5.19047965041689,0.303579952267303
-2.97784946589915,5.13038163802641,0.304534606205251
-2.9217143140532,5.07255863607718,0.305489260143198
-2.86760286173294,5.01712670198826,0.306443914081146
-2.81561887653301,4.96407607440358,0.307398568019093
-2.76580755428859,4.91348109208546,0.308353221957041
-2.71818526750223,4.86536688769013,0.309307875894988
-2.67287529382243,4.81959966800614,0.310262529832936
-2.6299586114534,4.77619001785477,0.311217183770883
-2.58943448353837,4.73511600519482,0.312171837708831
-2.55128446783065,4.6962263599166,0.313126491646778
-2.51554136769609,4.65952622929265,0.314081145584725
-2.48227222950433,4.62485266073382,0.315035799522673
-2.45134305253877,4.59212027201152,0.315990453460621
-2.4227401969096,4.56120173994614,0.316945107398568
-2.39648831072933,4.5319753821898,0.317899761336516
-2.37251339114346,4.50429782048287,0.318854415274463
-2.35064995975583,4.47802899744352,0.31980906921241
-2.3308650313357,4.45290610426861,0.320763723150358
-2.3130657933052,4.42889921266117,0.321718377088306
-2.29703745135281,4.40583070268285,0.322673031026253
-2.28273318370807,4.38356025330567,0.3236276849642
-2.27000816679024,4.36203114507186,0.324582338902148
-2.25870642750665,4.34106564452751,0.325536992840095
-2.24869024513608,4.32050356394325,0.326491646778043
-2.23988927547751,4.30033481737514,0.327446300715991
-2.23222071020121,4.28033175641276,0.328400954653938
-2.2254737723036,4.2603338432513,0.329355608591885
-2.21959161377553,4.2403400205881,0.330310262529833
-2.21450193333011,4.2202744257446,0.33126491646778
-2.20999883643873,4.19998480073143,0.332219570405728
-2.20602429038395,4.1793428955333,0.333174224343675
-2.20243301619026,4.15833146619614,0.334128878281623
-2.19903089269059,4.13679623662291,0.33508353221957
-2.19574430173799,4.11458310955294,0.336038186157518
-2.1924660054896,4.09164699781721,0.336992840095465
-2.18903930691368,4.06783283980857,0.337947494033413
-2.18529136951601,4.04300737270786,0.33890214797136
-2.18108290706601,4.01709384320097,0.339856801909308
-2.17625463876457,3.9899675586989,0.340811455847255
-2.17064718984005,3.96151522497928,0.341766109785203
-2.16419760120624,3.93161378672098,0.34272076372315
-2.15671294936297,3.90025729908997,0.343675417661098
-2.14806995733177,3.86726233729176,0.344630071599045
-2.13812382464906,3.83255067226043,0.345584725536993
-2.12675938165395,3.79602187134177,0.34653937947494
-2.11388347925513,3.75759981526557,0.347494033412888
-2.09938346064743,3.71729839993946,0.348448687350835
-2.08314434127583,3.67505094556268,0.349403341288783
-2.06511697964993,3.63081132219637,0.35035799522673
-2.04527966414666,3.58450866500947,0.351312649164678
