Drag (N),Lift (N),Time (s)
-4.091,7.086,0
-4.08272695237211,7.04607480532793,0.001
-4.07429487176409,7.00616493939153,0.002
-4.06571399293143,6.96620333622059,0.003
-4.05688817289578,6.92606793890644,0.004
-4.04769556976147,6.88575888597446,0.005
-4.03792474491989,6.84526150568108,0.006
-4.02753914732043,6.80442558047238,0.007
-4.01646941287697,6.7631652002697,0.008
-4.00459757802631,6.72139887087627,0.009
-3.99188195957389,6.6790977628725,0.01
-3.9782035988764,6.6360746229842,0.011
-3.96347641910267,6.59241432574465,0.012
-3.94765710536112,6.54800520340122,0.013
-3.93070251402091,6.50276967543716,0.014
-3.91260227135461,6.4567398573098,0.015
-3.89330234702834,6.40990127488121,0.016
-3.87287290192344,6.36221444990498,0.017
-3.85127461390205,6.31364723664123,0.018
-3.82844655063813,6.2642805724887,0.019
-3.80450365867694,6.21411104905156,0.02
-3.77937176733568,6.16316873973838,0.021
-3.75317133887842,6.11148854184608,0.022
-3.72587973460734,6.05906064481667,0.023
-3.69748298428402,6.00593258754243,0.024
-3.66801647445811,5.95216109657748,0.025
-3.63745642024914,5.89764064673207,0.026
-3.60586139989713,5.84243702516372,0.027
-3.57327635811692,5.78657640667402,0.028
-3.53971523430619,5.73000107212176,0.029
-3.50522132339615,5.67272136173861,0.03
-3.46979662389493,5.61479001749981,0.031
-3.43349156524452,5.55627754927334,0.032
-3.39634005912986,5.49709927631653,0.033
-3.35832856143341,5.43723910254104,0.034
-3.31957664922009,5.37671130111061,0.035
-3.28005121555726,5.31544981717932,0.036
-3.23972592074438,5.25340872807935,0.037
-3.19862854287625,5.19060939341213,0.038
-3.15679255712498,5.12698644747724,0.039
-3.11422772116263,5.06262022940535,0.04
-3.0709340843694,4.99741562367617,0.041
-3.02699168061064,4.93146510822416,0.042
-2.98247434915202,4.86465986161416,0.043
-2.93744023732287,4.79702887087979,0.044
-2.89189398491221,4.72867662860848,0.045
-2.84590616154023,4.65954917524881,0.046
-2.79954577596457,4.58964682320394,0.047
-2.75287985608044,4.51901249563473,0.048
-2.70593009773733,4.44769578240604,0.049
-2.65872308482905,4.37567651870871,0.05
-2.61128196176644,4.3028891817361,0.051
-2.56362483981704,4.22940423536971,0.052
-2.51579950179223,4.15523139752938,0.053
-2.46783596648914,4.08036736139567,0.054
-2.4197220820492,4.00482592169515,0.055
-2.37146921466839,3.9285977786519,0.056
-2.32304895344999,3.85168858170943,0.057
-2.27448135855562,3.77415297415008,0.058
-2.22576562999738,3.69586121589382,0.059
-2.17687343364708,3.61683264105349,0.06
-2.12771781240581,3.53722003940149,0.061
-2.07828935453311,3.45690889304398,0.062
-2.02857975111339,3.37595545291309,0.063
-1.97861249901267,3.29438843479208,0.064
-1.92839950725618,3.2122620285448,0.065
-1.87801104781759,3.12969617707763,0.066
-1.82741223208207,3.04671142470912,0.067
-1.77670817773999,2.96336049582591,0.068
-1.72582844937098,2.87969567430309,0.069
-1.67486562620559,2.79579722551864,0.07
-1.62373002509764,2.71174888753286,0.071
-1.57245833174816,2.62752755127204,0.072
-1.52103952299165,2.54322241546635,0.073
-1.46948384425611,2.45883682719967,0.074
-1.41779220605967,2.37454434792478,0.075
-1.3659466964682,2.2903193096935,0.076
-1.31392985589479,2.20619522109607,0.077
-1.26179768627709,2.12232179717221,0.078
-1.20949801474594,2.0386959706266,0.079
-1.15706375604578,1.95537662821486,0.08
-1.10453246533592,1.87243486345531,0.081
-1.05181109301958,1.78991492393564,0.082
-0.998975253136683,1.70779071175808,0.083
-0.945919754064523,1.62618511374576,0.084
-0.892708692366226,1.54508837538734,0.085
-0.839303153846924,1.46459337497198,0.086
-0.785687965093675,1.38478134056923,0.087
-0.73187775421011,1.30568225176346,0.088
-0.677899152510103,1.22737007802854,0.089
-0.623714895247915,1.14986534885884,0.09
-0.569337967774272,1.07330726534919,0.091
-0.514866306477033,0.997625756250103,0.092
-0.460312156101431,0.922929578480935,0.093
-0.405662594604386,0.849319694945932,0.094
-0.350967232664339,0.776919329164046,0.095
-0.296290694053354,0.705706519945686,0.096
-0.241655624420842,0.635820934717894,0.097
-0.187109253234574,0.567223523984339,0.098
-0.132728116442501,0.500005952997298,0.099
-0.0784831156616684,0.434156097486201,0.1
-0.0243602270249577,0.369752918738955,0.101
0.0295229597150514,0.306799551604017,0.102
0.0831086130098843,0.245088941062742,0.103
0.136563147738895,0.184789397078112,0.104
0.189797626852066,0.125864307821339,0.105
0.242786090492963,0.0681359536623438,0.106
0.295376623346804,0.0116799077161731,0.107
0.347650320803966,-0.0435636527551582,0.108
0.399666993824583,-0.0975485829213789,0.109
0.451378258708828,-0.150296782300916,0.11
0.502784224038791,-0.201913786146997,0.111
0.553840307190188,-0.252302697382632,0.112
0.604605590980298,-0.301605162500898,0.113
0.655086674938728,-0.349791105281547,0.114
0.705275993094492,-0.396881566782827,0.115
0.755212139596338,-0.442972990866108,0.116
0.804880767125255,-0.488169493247516,0.117
0.854401416878242,-0.532532295005669,0.118
0.903713831799951,-0.576076454056618,0.119
0.952835799268669,-0.618973291583765,0.12
1.00182932096499,-0.661285477388786,0.121
1.05065233377359,-0.703031610055815,0.122
1.09940496438768,-0.744245668976225,0.123
1.14807541311498,-0.785106804236673,0.124
1.19664091749104,-0.825657131631774,0.125
1.24510662429684,-0.865943842253975,0.126
1.29341414137132,-0.905932841277797,0.127
1.34166313176378,-0.94572292778039,0.128
1.38980888740781,-0.985330248173813,0.129
1.43785867991988,-1.02477444607126,0.13
1.48581557973566,-1.06412133767025,0.131
1.53363224399335,-1.1033618083527,0.132
1.58139599105471,-1.14255637254088,0.133
1.62902092404851,-1.18167251056869,0.134
1.67645806620824,-1.22067133410493,0.135
1.72375513415703,-1.25957277496699,0.136
1.7709167805647,-1.29824193402121,0.137
1.8178529507594,-1.33662381807259,0.138
1.86451984761247,-1.37474014733242,0.139
1.91089358045551,-1.41244360739242,0.14
1.95695029827004,-1.44980941638219,0.141
2.00261059443593,-1.48667286659914,0.142
2.04786488282677,-1.52294233688439,0.143
2.09265174340293,-1.55854075080723,0.144
2.13692540550233,-1.59339173887369,0.145
2.18065216988671,-1.62754581929298,0.146
2.22378880812348,-1.66081660899759,0.147
2.26625134047404,-1.69315307930637,0.148
2.30803121714558,-1.7245132623155,0.149
2.34908261123506,-1.75487361162774,0.15
2.38936364683095,-1.78415298844906,0.151
2.42875260265732,-1.81214800078761,0.152
2.46719152952697,-1.83891997330917,0.153
2.5047189085166,-1.86442860331061,0.154
2.54128628124966,-1.88852447592913,0.155
2.57676326990179,-1.9110992766271,0.156
2.6110592621689,-1.9321583987909,0.157
2.64414442668138,-1.95161223066087,0.158
2.67608942682591,-1.96942389255033,0.159
2.70675734047254,-1.98543069938986,0.16
2.73605638223153,-1.99962629458595,0.161
2.763839331876,-2.01200337488112,0.162
2.79006947585947,-2.02240866213006,0.163
2.81471347608064,-2.03079014253034,0.164
2.83769561438212,-2.03713333835,0.165
2.85895590359563,-2.04143347575475,0.166
2.87857454010797,-2.04374744351609,0.167
2.89644855553088,-2.04398670341081,0.168
2.91257355882333,-2.04213052883623,0.169
2.92687830090915,-2.0381810922018,0.17
2.93940122664371,-2.0321925663596,0.171
2.95007101640812,-2.02414169688382,0.172
2.95879654716129,-2.01400330868381,0.173
2.96557300527116,-2.00195551403163,0.174
2.97042090797103,-1.98793290875002,0.175
2.9732770045044,-1.97211273141837,0.176
2.97418688514742,-1.95445215543085,0.177
2.97319125850515,-1.93505867812998,0.178
2.97039698906838,-1.91402180417896,0.179
2.96572752052088,-1.8913530470483,0.18
2.95929248928521,-1.8672262325115,0.181
2.95119310843923,-1.8417531246701,0.182
2.9415063719641,-1.8149501152763,0.183
2.93030675358963,-1.78691383665208,0.184
2.91758643258841,-1.75781792866126,0.185
2.90343035138826,-1.7277530526003,0.186
2.88791588072325,-1.69691471857369,0.187
2.87117540383539,-1.66535726517114,0.188
2.85329896020108,-1.63326243870867,0.189
2.83441142456384,-1.60077027007077,0.19
2.81453892831957,-1.5679309172087,0.191
2.79379684322039,-1.53492897822487,0.192
2.77238741194405,-1.50180513505999,0.193
2.7504069933885,-1.46874413171186,0.194
2.72795771810417,-1.43586308127079,0.195
2.70520842357511,-1.40334397862345,0.196
2.68234528181236,-1.37128930002802,0.197
2.6595263135409,-1.33980824639359,0.198
2.63688705322609,-1.30900585679251,0.199
2.61462710017311,-1.27899999418924,0.2
2.59286183164591,-1.24982487044949,0.201
2.57173003878504,-1.22165728007979,0.202
2.55143159632899,-1.19453310724452,0.203
2.53217107885055,-1.16825994698134,0.204
2.51393140473986,-1.14311063815057,0.205
2.49690678951314,-1.11898824632514,0.206
2.48125658671659,-1.09584015981527,0.207
2.46715347475069,-1.07375204733112,0.208
2.45466572056475,-1.05264162184566,0.209
2.4438558895906,-1.03243077088666,0.21
2.43486407216998,-1.0130572263938,0.211
2.42777299687807,-0.994459461008883,0.212
2.42265888802133,-0.976541572349146,0.213
2.41953849997748,-0.959189286064675,0.214
2.41846276438632,-0.94233593397981,0.215
2.41943906203278,-0.925840037409143,0.216
2.42243946435166,-0.909579630595823,0.217
2.42751813206558,-0.893354082089561,0.218
2.43459050997207,-0.877021478214471,0.219
2.44362580586179,-0.860447796773974,0.22
2.45448340918594,-0.843432348665577,0.221
2.46712326467423,-0.825812404887551,0.222
2.48149552159002,-0.807523390173881,0.223
2.49742057633369,-0.788455898477683,0.224
2.51473986463137,-0.76824118867942,0.225
2.5333210786185,-0.746755290613751,0.226
2.55302395344133,-0.723884646044702,0.227
2.57370850562361,-0.6994511141766,0.228
2.59510177700241,-0.673302971202081,0.229
2.61707625146786,-0.64529403753772,0.23
2.63947269826809,-0.615223787020082,0.231
2.66209338344689,-0.582899336880461,0.232
2.68476041980236,-0.548229463040866,0.233
2.70719939466101,-0.51103977751949,0.234
2.72922727956871,-0.471166123814227,0.235
2.75070468164235,-0.428510765004706,0.236
2.77135729817757,-0.38297981519363,0.237
2.79101592269502,-0.33452891796432,0.238
2.80946056444905,-0.283066901574347,0.239
2.82650783740783,-0.228605826376715,0.24
2.84194954850623,-0.171122822749343,0.241
2.85561102274156,-0.110549528556302,0.242
2.86733319167648,-0.0469756359917176,0.243
2.87699509611562,0.0195218601469373,0.244
2.88452074224143,0.0888370302628746,0.245
2.88976522117906,0.16089072003108,0.246
2.89260831247126,0.235631405002611,0.247
2.89296388444968,0.312873872486295,0.248
2.89083026764798,0.392473342168819,0.249
2.88614956372791,0.474272510238421,0.25
2.87884596347935,0.558089732160951,0.251
2.86886276457262,0.643709721280728,0.252
2.85627481681574,0.730952070052009,0.253
2.84104703178826,0.819702645420458,0.254
2.82310345045258,0.909797202268883,0.255
2.8024433863811,1.00092751589084,0.256
2.77912962242574,1.09281432569628,0.257
2.75332214701313,1.18536434132255,0.258
2.72502934223171,1.27830490903517,0.259
2.69422648721576,1.37136421909076,0.26
2.66100657070738,1.46442629947799,0.261
2.62553470280556,1.55727599134268,0.262
2.58804664376246,1.64961267214901,0.263
2.54863478894386,1.74109763225891,0.264
2.50740106420136,1.83148356299972,0.265
2.46449994112988,1.92063635270112,0.266
2.42013551085104,2.00835943290253,0.267
2.37446421256066,2.09450453056548,0.268
2.32759122862786,2.17877248135662,0.269
2.27967161292335,2.26096580065848,0.27
2.23093480809422,2.34100062195591,0.271
2.18161276353422,2.41863902540017,0.272
2.13185287581988,2.49370663114123,0.273
2.08191157794983,2.56612997582859,0.274
2.03196815490649,2.6358484102359,0.275
1.98222196939011,2.70273052245109,0.276
1.93285096789156,2.76671989622385,0.277
1.88393389025914,2.82769490365604,0.278
1.83554078416166,2.88572300886955,0.279
1.78779894786097,2.94062809283737,0.28
1.74088514694168,2.99229175381423,0.281
1.6947745813655,3.04087657556959,0.282
1.64956655543482,3.08643514518745,0.283
1.60528229499278,3.1288330493213,0.284
1.56191739303318,3.16829729002807,0.285
1.51949753141572,3.20488851861578,0.286
1.47816321202973,3.23870616067095,0.287
1.43780094545666,3.2699809888157,0.288
1.39821732569428,3.29872711705905,0.289
1.35942900072177,3.32527323195977,0.29
1.32143944852796,3.34972671729916,0.291
1.28410660918274,3.37223367258279,0.292
1.24735178136781,3.39309250480407,0.293
1.21104793667525,3.41238430776601,0.294
1.17501497005465,3.43043850107595,0.295
1.13912968744552,3.44753739901735,0.296
1.10328514901883,3.46383206817219,0.297
1.06724907270052,3.47963331311804,0.298
1.03079106108775,3.49520776642877,0.299
0.993823845488229,3.51080868716339,0.3
0.956149131840057,3.5266330253826,0.301
0.917573892441704,3.54294110783387,0.302
0.877934669344714,3.55994886724295,0.303
0.837085713049314,3.57784924951956,0.304
0.794810663880386,3.59667399408562,0.305
0.751050494481422,3.61660446035044,0.306
0.705628519591292,3.63777099017829,0.307
0.658367107313364,3.66039441766546,0.308
0.609172203814687,3.68459661801688,0.309
0.557935423721195,3.71042078945591,0.31
0.504567685224661,3.73794196834233,0.311
0.4489140313144,3.76714437496701,0.312
0.390931140633593,3.79814250988729,0.313
0.330585390440072,3.83096159433324,0.314
0.267852883248572,3.86561388597697,0.315
0.202702043741451,3.90209392199046,0.316
0.135191271518614,3.94043976424692,0.317
0.0654054286669972,3.98061138409456,0.318
-0.00669838004751766,4.02256871939901,0.319
-0.0809700909278366,4.0663556709533,0.32
-0.157242748055613,4.11188547287418,0.321
-0.235368456878189,4.15919533658159,0.322
-0.315172708477378,4.20824025479979,0.323
-0.396539627515489,4.25901316297609,0.324
-0.479251081246556,4.31143306195068,0.325
-0.563038011097171,4.36527833639539,0.326
-0.647678892002929,4.4205024009867,0.327
-0.732937288915446,4.47700577006184,0.328
-0.818586407159426,4.5346773925001,0.329
-0.904355061562296,4.59339666134481,0.33
-0.990022302893526,4.65302845494965,0.331
-1.07541709789342,4.71339302310075,0.332
-1.16027534841578,4.77431254173507,0.333
-1.24444117760621,4.83565288949966,0.334
-1.32761154067988,4.89725045208901,0.335
-1.40956458459157,4.95888452833624,0.336
-1.4901562684035,5.02041297017588,0.337
-1.56912408905736,5.08173653147816,0.338
-1.64636270481617,5.14272416664741,0.339
-1.72164431815819,5.20320979131565,0.34
-1.79478206984547,5.26318535091429,0.341
-1.86561460068143,5.32254269429271,0.342
-1.93402039697367,5.38118199527758,0.343
-1.99990823891985,5.43909333205124,0.344
-2.06323863260352,5.49625826576541,0.345
-2.12401367265003,5.55284432883785,0.346
-2.18217459576632,5.60877115702968,0.347
-2.23769368642848,5.6640943160705,0.348
-2.29061752429837,5.71881671496988,0.349
-2.34100942140097,5.77299134343327,0.35
-2.38897244576947,5.82671462108867,0.351
-2.43451473915653,5.8800285292806,0.352
-2.4776755335072,5.93302608691184,0.353
-2.51859170707236,5.98555919170385,0.354
-2.5572865988783,6.0376772084592,0.355
-2.59384481790437,6.08936654355592,0.356
-2.62827933523825,6.14069087396263,0.357
-2.66069041215258,6.19168743807822,0.358
-2.69130515442557,6.24221214938846,0.359
-2.72024080863767,6.29229850091623,0.36
-2.74758632112147,6.34198092868919,0.361
-2.77338693321494,6.39108131194129,0.362
-2.79783628653676,6.43958868093706,0.363
-2.82125555765291,6.48758962961137,0.364
-2.84375552512109,6.53517533773599,0.365
-2.86549506085675,6.58236333330164,0.366
-2.88662406716244,6.62903232723858,0.367
-2.90733098064732,6.6751768230017,0.368
-2.92792031189232,6.72073296724462,0.369
-2.94841250052312,6.7658117355751,0.37
-2.96891705686983,6.81042966728412,0.371
-2.98964904449025,6.85444308520222,0.372
-3.01085695981545,6.89799599047984,0.373
-3.03262388848525,6.94107468030109,0.374
-3.05502850922527,6.98351365699464,0.375
-3.07820425294669,7.02531103319828,0.376
-3.10234195869999,7.0664517368359,0.377
-3.12752147120089,7.10691579867823,0.378
-3.15371806173856,7.14663889887944,0.379
-3.18100921291659,7.18546950902577,0.38
-3.20952732530206,7.22360923879903,0.381
-3.23931226689459,7.26107408830782,0.382
-3.27028970124296,7.29758236162408,0.383
-3.3025475333711,7.33309314686192,0.384
-3.33614811510995,7.3676875057541,0.385
-3.37093608639184,7.40106852573699,0.386
-3.4068387745965,7.43314018218991,0.387
-3.44395143087121,7.46385806958085,0.388
-3.48204147426519,7.49305033452176,0.389
-3.52084799870982,7.52064428969296,0.39
-3.56039966699344,7.54638285313914,0.391
-3.60063672343906,7.57027201963824,0.392
-3.64120395487358,7.5921276969367,0.393
-3.682008153838,7.6116914975253,0.394
-3.72296565763297,7.62903707019679,0.395
-3.76377242168137,7.64393422290553,0.396
-3.80421146287882,7.65610260279254,0.397
-3.84423823729198,7.66565881728402,0.398
-3.883601266601,7.67242091611471,0.399
-3.92197439353059,7.67623450791775,0.4
-3.95931567285336,7.67697887927958,0.401
-3.99545093435326,7.67461371156218,0.402
-4.03012935551756,7.66905445345239,0.403
-4.06320917372999,7.66026716522319,0.404
-4.09459369992405,7.64823226650029,0.405
-4.12410776391995,7.63296104616302,0.406
-4.15163980592025,7.61464134649414,0.407
-4.17702572209311,7.59320793291791,0.408
-4.20011627168331,7.56860949984618,0.409
-4.2208743924688,7.54094126497986,0.41
-4.23913233502968,7.51029621826072,0.411
-4.25478293906678,7.47666760492455,0.412
-4.26771429214419,7.44024502271857,0.413
-4.27786160990696,7.40103165931442,0.414
-4.28515714791726,7.35912410629939,0.415
-4.28954361481301,7.31463695648626,0.416
-4.2909812798205,7.26769183904848,0.417
-4.28949920384084,7.21831109898188,0.418
-4.2850530540673,7.1666550376838,0.419
-4.27759825365447,7.11288257820178,0.42
-4.26723500013697,7.05694880105916,0.421
-4.25410622204693,6.99904160279527,0.422
-4.23816986015177,6.93922156825969,0.423
-4.2195516016576,6.87750562210094,0.424
-4.19828470876089,6.81414110982645,0.425
-4.17448032716265,6.7492512479709,0.426
-4.14834891183251,6.68301790720604,0.427
-4.12000859463098,6.61559164864591,0.428
-4.08956235317381,6.54712130169858,0.429
-4.05716029715623,6.47773717759436,0.43
-4.02288423331464,6.40759873840769,0.431
-3.98690396410443,6.33694231414352,0.432
-3.94931627801093,6.26589423180962,0.433
-3.91026078904968,6.19461088735111,0.434
-3.86980086359397,6.12326577161292,0.435
-3.82812424621899,6.05194930208412,0.436
-3.78538321307415,5.98084125181197,0.437
-3.74166084300937,5.9100619754559,0.438
-3.69708786999359,5.83965030176878,0.439
-3.65178720382486,5.76971105347616,0.44
-3.6059138968396,5.70033650234394,0.441
-3.5595757780254,5.63158209885828,0.442
-3.5128526937633,5.56346703105994,0.443
-3.46583007363979,5.49601115066204,0.444
-3.41862228711095,5.42926293481288,0.445
-3.37126921609003,5.36314499094637,0.446
-3.32381900270601,5.29745474325325,0.447
-3.27633688245104,5.23231392416364,0.448
-3.2288784989293,5.16755487291974,0.449
-3.18142584954843,5.10320602670861,0.45
-3.13397854869469,5.0391554919781,0.451
-3.08651782180587,4.97532709292634,0.452
-3.03908110961254,4.9116358329447,0.453
-2.99172584677934,4.84799668689924,0.454
-2.94442698081623,4.78449062236193,0.455
-2.89725144148597,4.72098108083034,0.456
-2.85024068592927,4.65750839004915,0.457
-2.80347865114315,4.59393119067872,0.458
-2.75699590412201,4.53020970994297,0.459
-2.71073644156983,4.46637109575323,0.46
-2.6647215597767,4.4024405087561,0.461
-2.61898360565564,4.33828400715046,0.462
-2.5735927206575,4.27391198701276,0.463
-2.52850790664575,4.20926963175736,0.464
-2.48360828792667,4.14429156900335,0.465
-2.43894697943131,4.07880999220412,0.466
-2.39445067993711,4.01275720654987,0.467
-2.35006844354276,3.94611769416015,0.468
-2.30572947026192,3.87877878597403,0.469
-2.26132014556897,3.81075586566068,0.47
-2.2168417738381,3.74192401591523,0.471
-2.17227178316701,3.67222951969354,0.472
-2.12753039048992,3.60162980854997,0.473
-2.08252600159554,3.52997524354203,0.474
-2.03723500732537,3.4572477506495,0.475
-1.99167507474588,3.38356415581062,0.476
-1.94579768382313,3.3088874373682,0.477
-1.89955290438373,3.23318349473078,0.478
-1.85285876825833,3.15648370710942,0.479
-1.80575610439812,3.07881344062094,0.48
-1.75818059292767,3.00029533446976,0.481
-1.71009760876865,2.92069164964534,0.482
-1.66148052739985,2.84006660254647,0.483
-1.61228518701033,2.75863845776308,0.484
-1.56250214075308,2.67642810679084,0.485
-1.51204520047696,2.5933673908822,0.486
-1.46094534862517,2.50962142803097,0.487
-1.40921387025189,2.42534282693414,0.488
