Drag (N),Lift (N),Time (s)
-4.091,7.086,0
-4.06916834424174,7.03645337051206,0.001
-4.04728716509088,6.98690851777645,0.002
-4.02535535516369,6.93734056057211,0.003
-4.00333885105882,6.88770904948821,0.004
-3.98119647476846,6.83800729145721,0.005
-3.95886063411587,6.78822295865322,0.006
-3.93631742480867,6.73830192265805,0.007
-3.91353968514272,6.68820940097683,0.008
-3.89048390884234,6.63791351856992,0.009
-3.86713036945138,6.58739474459993,0.01
-3.84343646544291,6.53658476970023,0.011
-3.81936818784885,6.48550005294083,0.012
-3.79490254527831,6.43409629100594,0.013
-3.77001724264812,6.3823405685096,0.014
-3.74470039218814,6.33023370350503,0.015
-3.71892645406788,6.2777614489443,0.016
-3.6927062359237,6.22490188281748,0.017
-3.66601731833966,6.17163514495477,0.018
-3.63883215286436,6.1179759880658,0.019
-3.61117606010895,6.06391286832792,0.02
-3.58301564420802,6.00944532555831,0.021
-3.55437693888183,5.95457548506357,0.022
-3.52524294238307,5.89929020593886,0.023
-3.49559972566273,5.84359333507602,0.024
-3.46544857087457,5.78749249097456,0.025
-3.43477324641919,5.73094622712491,0.026
-3.40358210957576,5.67396486123804,0.027
-3.3718793644404,5.61654709277507,0.028
-3.33966000555376,5.55866662230884,0.029
-3.30692663477776,5.50031636082105,0.03
-3.27367023826408,5.44150226193771,0.031
-3.23989547193579,5.38223673497933,0.032
-3.2056020384297,5.3224848130474,0.033
-3.1707769277113,5.26223331076777,0.034
-3.13544746206787,5.20147863378315,0.035
-3.09959276438069,5.14019394564216,0.036
-3.06319356884242,5.07836155726172,0.037
-3.02624866115435,5.01598352208188,0.038
-2.9887585891731,4.95303617955281,0.039
-2.95071629981131,4.88954141840692,0.04
-2.91211303934685,4.82546774544212,0.041
-2.87296623095795,4.7608458093566,0.042
-2.83329307512732,4.69564717898158,0.043
-2.79310891822347,4.62988612991209,0.044
-2.75241401680038,4.56360168442224,0.045
-2.71123032895828,4.49678686107811,0.046
-2.66958233165464,4.42945355955823,0.047
-2.62749521507814,4.36162840665671,0.048
-2.58498043432248,4.29334015931618,0.049
-2.54205164579129,4.22459544249683,0.05
-2.49872293827972,4.15538996821407,0.051
-2.45500829996483,4.08576150582315,0.052
-2.41093030396952,4.01572786461361,0.053
-2.36650508266744,3.94530422980421,0.054
-2.32173752777885,3.87451243862288,0.055
-2.27664112405294,3.80336599547357,0.056
-2.23121640647991,3.73188197354861,0.057
-2.18547601844012,3.66009201040279,0.058
-2.1394262182791,3.58797218306714,0.059
-2.09306690782164,3.51554414140756,0.06
-2.04638086194838,3.44286941299145,0.061
-1.99937526618698,3.36992769901012,0.062
-1.95205804574936,3.29675086347506,0.063
-1.90444869592147,3.22336330795384,0.064
-1.85656469190987,3.14979642416814,0.065
-1.80844018508157,3.0761003618504,0.066
-1.76007766610734,3.00229558744126,0.067
-1.71152519169704,2.92841393519274,0.068
-1.66277737528227,2.85448760221937,0.069
-1.61387689602975,2.78055642168511,0.07
-1.56481014041604,2.70666190770317,0.071
-1.51560261137318,2.63281484547922,0.072
-1.46626523053189,2.55905681412935,0.073
-1.41681407720021,2.48540186441851,0.074
-1.36726240608905,2.41191699367808,0.075
-1.31761667140627,2.33860748695473,0.076
-1.26788168571287,2.26549641361415,0.077
-1.21808311661804,2.19264161314776,0.078
-1.16821254911095,2.12005393123575,0.079
-1.11828706791043,2.04776036741194,0.08
-1.06832327654073,1.97579018786191,0.081
-1.01829549010759,1.90416476136251,0.082
-0.968228012122958,1.83288315455353,0.083
-0.918089850754957,1.76198808352757,0.084
-0.867901038101551,1.69147931502828,0.085
-0.817649778774405,1.6213865339789,0.086
-0.767330701372354,1.55173547079439,0.087
-0.716947054195145,1.48253678594504,0.088
-0.666505003012019,1.41381368925511,0.089
-0.615990828078925,1.34557308248707,0.09
-0.565406793193165,1.27785946947995,0.091
-0.514781310340017,1.21065409857534,0.092
-0.464118217792933,1.14399386067712,0.093
-0.413414842969521,1.07791440975914,0.094
-0.362687671657038,1.01245841664943,0.095
-0.311958159846638,0.947624287455925,0.096
-0.261235107187783,0.883462839628331,0.097
-0.21053605441065,0.819971438759702,0.098
-0.159888935317579,0.75718566017938,0.099
-0.109289839151393,0.695112127700282,0.1
-0.0587397950255854,0.633785208871375,0.101
-0.00828038531966393,0.573213922425466,0.102
0.0420650617422612,0.513345385860685,0.103
0.0923412695948379,0.454239314586413,0.104
0.142514581078909,0.395892491231094,0.105
0.192570670362309,0.338261784682922,0.106
0.242455175274243,0.28138014671674,0.107
0.29218331504171,0.225239586801783,0.108
0.341763544774456,0.169867763673757,0.109
0.391170464192981,0.115273048820462,0.11
0.440393138617797,0.0614373079416345,0.111
0.489406226283859,0.0084060929725921,0.112
0.538214123835344,-0.0438464415475849,0.113
0.58680440414771,-0.0952952076053294,0.114
0.635159929932188,-0.145929209986205,0.115
0.683277328860883,-0.195760367815448,0.116
0.731137104366881,-0.244803276692797,0.117
0.778761467633329,-0.293057814269293,0.118
0.826118317094094,-0.340510431894224,0.119
0.87319757766548,-0.387195826839344,0.12
0.920003900219896,-0.433115981038613,0.121
0.966512540794923,-0.478261346672358,0.122
1.01274206223192,-0.522630537555517,0.123
1.05867657343056,-0.566266237025516,0.124
1.10429619851996,-0.609167893142931,0.125
1.14959026111016,-0.65133943248073,0.126
1.19452951624842,-0.692760792746816,0.127
1.23913244066214,-0.733452724134355,0.128
1.28337381038424,-0.77341222631534,0.129
1.32724554892302,-0.812637097257355,0.13
1.37073932961263,-0.851138855586849,0.131
1.41383119994639,-0.888907992902306,0.132
1.45653762693212,-0.925958728777081,0.133
1.49882227980816,-0.962276574513839,0.134
1.54066056274888,-0.997844103375293,0.135
1.5820582870288,-1.03266255375411,0.136
1.62300781064883,-1.06668678145788,0.137
1.66347072562341,-1.09989548401899,0.138
1.70342224358229,-1.13229167197684,0.139
1.74284439289775,-1.16382796451491,0.14
1.78171901277371,-1.19452559676495,0.141
1.82000980845474,-1.22433349128468,0.142
1.85770186624558,-1.25322432979565,0.143
1.89476626974159,-1.28117603669872,0.144
1.93117981703518,-1.30816666282692,0.145
1.96692269762009,-1.33421421120429,0.146
2.00197191206346,-1.35926554830861,0.147
2.03629388860724,-1.38330979875309,0.148
2.06988039972514,-1.40633881436608,0.149
2.10271267629193,-1.42835204324813,0.15
2.13477316039826,-1.44933310807354,0.151
2.16602158083186,-1.46922810708973,0.152
2.19643909686341,-1.48806444218574,0.153
2.22603605678653,-1.50583807365025,0.154
2.25479666189299,-1.52251246788376,0.155
2.2826812490717,-1.53806642732589,0.156
2.30966449494943,-1.55251384104334,0.157
2.33574055172251,-1.56583872627534,0.158
2.36093241555895,-1.57804280250777,0.159
2.38519948144408,-1.58908796741527,0.16
2.4085163005517,-1.59898119661714,0.161
2.43084110138684,-1.60773133269615,0.162
2.45216561809862,-1.61530441360448,0.163
2.47248194579245,-1.62169721520907,0.164
2.49176960677907,-1.62691717878938,0.165
2.51001529620616,-1.63097423115145,0.166
2.5272502235179,-1.63389773918261,0.167
2.54344984911555,-1.63567291218752,0.168
2.55862139311429,-1.63630552885691,0.169
2.57275420430589,-1.63580777140675,0.17
2.58587376451518,-1.63420727762817,0.171
2.59797315962774,-1.63150808027773,0.172
2.60904173735343,-1.62771207290743,0.173
2.61909856114658,-1.62288134477599,0.174
2.62817097761267,-1.61700195990108,0.175
2.63626229109529,-1.61013298510408,0.176
2.64341017314036,-1.60226598525464,0.177
2.64964916914128,-1.59343568726249,0.178
2.65503282378626,-1.58367079287486,0.179
2.65955975709295,-1.57297744554298,0.18
2.66328529464911,-1.56140984694106,0.181
2.66626106783542,-1.54900005907777,0.182
2.66852815151169,-1.53575088743445,0.183
2.67012505556526,-1.52168850390722,0.184
2.67106457445521,-1.50686043160479,0.185
2.67138738526058,-1.49128833089863,0.186
2.67113091967889,-1.47502295509,0.187
2.67034543284324,-1.45807229023722,0.188
2.6690656703617,-1.44048138673679,0.189
2.6673365274166,-1.42227976694294,0.19
2.66517253639644,-1.4034698961289,0.191
2.66261439639139,-1.38409514004014,0.192
2.65972776730307,-1.36415343342464,0.193
2.65654401616074,-1.34368415243755,0.194
2.65309478101047,-1.32270660643337,0.195
2.64943090181377,-1.30126192474561,0.196
2.64560706474606,-1.2793658714826,0.197
2.6416678572868,-1.25703508882156,0.198
2.63764963949547,-1.23428536035298,0.199
2.63360732421299,-1.2111377064227,0.2
2.62956860275247,-1.18758746458578,0.201
2.62556607303499,-1.16367389082331,0.202
2.62165063604389,-1.13939585697032,0.203
2.61787474469291,-1.11468303869689,0.204
2.61422082600773,-1.08960931767127,0.205
2.610734633825,-1.06413815192157,0.206
2.6074510117551,-1.0382445748667,0.207
2.6044091944187,-1.01194593260174,0.208
2.60161622556189,-0.985210846982893,0.209
2.59907505957567,-0.958012438094425,0.21
2.59681095495183,-0.930333715283103,0.211
2.59483164334734,-0.902159605460475,0.212
2.5931437342574,-0.873467424648159,0.213
2.59173517347721,-0.844232200941993,0.214
2.59060368723754,-0.814446041770133,0.215
2.58973519775464,-0.784081610066688,0.216
2.58910706331823,-0.753119501765426,0.217
2.58872224867898,-0.721517399565544,0.218
2.58854124780581,-0.689251271701187,0.219
2.58854365548821,-0.656302290868104,0.22
2.58867975939973,-0.622631786596769,0.221
2.58893329510077,-0.588212045220715,0.222
2.5892868546459,-0.553046161435277,0.223
2.58968491579076,-0.517124493388153,0.224
2.59008112648671,-0.480359347347896,0.225
2.59044088729122,-0.442737595050481,0.226
2.59073011793619,-0.404249402146318,0.227
2.59091817694744,-0.364866748035563,0.228
2.59093608921935,-0.324569904792542,0.229
2.59076077471142,-0.283339590704079,0.23
2.59036043723736,-0.241140750696522,0.231
2.58969213772276,-0.197941230726569,0.232
2.58871989478907,-0.153740153174227,0.233
2.58737798855136,-0.108511631399206,0.234
2.58562990302771,-0.062233447000164,0.235
2.58345363745119,-0.0149044055839872,0.236
2.58078587401068,0.0334765521598527,0.237
2.5775930667801,0.0828947121896702,0.238
2.57382485919888,0.133347953334808,0.239
2.56944391740991,0.18480559212157,0.24
2.56440583610855,0.237248961304856,0.241
2.55867510825777,0.29067375785755,0.242
2.55221909565646,0.345029986288849,0.243
2.54501437961003,0.400272219989209,0.244
2.537047821191,0.45635000275607,0.245
2.52828311984578,0.513225282116221,0.246
2.51868912496962,0.570872527900054,0.247
2.50824149330312,0.629228445277716,0.248
2.49693875968866,0.688244139870449,0.249
2.48475854719301,0.747872424024358,0.25
2.47166963096625,0.808062988231231,0.251
2.45764426360614,0.868759310830352,0.252
2.44269267221789,0.929915062733391,0.253
2.42679024800328,0.991503409401656,0.254
2.40989706383387,1.05348590997027,0.255
2.39199373027521,1.11578108377978,0.256
2.37308043631503,1.17831596122151,0.257
2.3531855205184,1.24107392124276,0.258
2.33228785500005,1.30398401865573,0.259
2.31035231686508,1.36697690390415,0.26
2.28737938652361,1.4300275546019,0.261
2.26339296517026,1.49307732311315,0.262
2.23843600359348,1.55604322897473,0.263
2.21250601611337,1.61883170263878,0.264
2.1856030096048,1.68137670803538,0.265
2.15774393183139,1.74364475647048,0.266
2.12896224436675,1.80558072274715,0.267
2.09927360795295,1.86714308882349,0.268
2.06867849338857,1.92824409603162,0.269
2.03719780081193,1.98882633622045,0.27
2.00487681146332,2.04886323793969,0.271
1.97176023550465,2.10828095456338,0.272
1.93786717497252,2.16702645985822,0.273
1.90325489498373,2.22507338944968,0.274
1.86796004825692,2.28239849726217,0.275
1.83202407292718,2.33895682891715,0.276
1.79548359879778,2.39472575767604,0.277
1.75834924162158,2.44966239868835,0.278
1.72063062697109,2.50377826576414,0.279
1.68235390056565,2.55701139638266,0.28
1.64356201001071,2.60931992732092,0.281
1.60424125234632,2.66074592788109,0.282
1.56441641822194,2.71129638360292,0.283
1.52408678915089,2.76092171469707,0.284
1.48324749584121,2.80967932126217,0.285
1.44190967870839,2.85757342976318,0.286
1.40012118688117,2.90462073599505,0.287
1.35785472393347,2.95087734748734,0.288
1.31506619646752,2.99633186370228,0.289
1.27177967091673,3.04106729973409,0.29
1.22801509325449,3.0850992065382,0.291
1.1837542668399,3.12845438714802,0.292
1.13900558791245,3.17120278862653,0.293
1.09376290187057,3.21334886332349,0.294
1.04800679003756,3.25497450617738,0.295
1.00174082471019,3.29614295194348,0.296
0.954974303097261,3.33687815982271,0.297
0.907678973815892,3.37725616978222,0.298
0.859831290410611,3.41733784699344,0.299
0.811452126296963,3.45717934601719,0.3
0.762526860548193,3.49682122883732,0.301
0.713043750191279,3.53632467154321,0.302
0.663000941098539,3.57573968427745,0.303
0.612400311702674,3.61511196505781,0.304
0.561220252898431,3.65443772431184,0.305
0.50948644568215,3.69376475760064,0.306
0.457187989701177,3.73313100536806,0.307
0.404311877968231,3.77260103248177,0.308
0.3508673712857,3.8122120466713,0.309
0.296856068616443,3.85198210707022,0.31
0.242283376947707,3.89193964516363,0.311
0.187132776930337,3.93208686672583,0.312
0.131419336776157,3.97246985304877,0.313
0.0751577588885692,4.01310791495532,0.314
0.0183625324557106,4.05401788284387,0.315
-0.0389566384082162,4.0952149813391,0.316
-0.0967650382612696,4.13672872879552,0.317
-0.155022736033954,4.17856626626497,0.318
-0.213731530983254,4.22073713025579,0.319
-0.272837767989777,4.26327586370474,0.32
-0.332286829828716,4.30617706169789,0.321
-0.392030845799348,4.34947319743623,0.322
-0.452016222064811,4.39316995111512,0.323
-0.512212174113596,4.43728608189295,0.324
-0.572558805384854,4.48182089871733,0.325
-0.632982789230614,4.5267300970992,0.326
-0.693427962924693,4.57202104579012,0.327
-0.753836551811494,4.61768610172772,0.328
-0.814156086348717,4.66371314450658,0.329
-0.874321005536458,4.71008605842359,0.33
-0.934282442034186,4.75678532434084,0.331
-0.994008910781946,4.80377604827021,0.332
-1.05344196603156,4.85102147084329,0.333
-1.11255615320878,4.89849712407045,0.334
-1.17128099266704,4.94616762280208,0.335
-1.22957086963751,4.9939777093862,0.336
-1.2874033785267,5.04189440175979,0.337
-1.34471918526583,5.08989554833599,0.338
-1.40150606852006,5.13794590484893,0.339
-1.45771305557213,5.18599669188753,0.34
-1.51329926888324,5.23404637222855,0.341
-1.56822912166761,5.28205978006201,0.342
-1.62247691190307,5.33000012056052,0.343
-1.67602385869625,5.37785578910727,0.344
-1.72886428912075,5.42560982150754,0.345
-1.78100317604733,5.47329684658047,0.346
-1.83242338602626,5.52087243056316,0.347
-1.88311364746818,5.56833114759473,0.348
-1.93308161097994,5.61564808528026,0.349
-1.98233645879557,5.66281166071472,0.35
-2.03089592192012,5.70982075663005,0.351
-2.0787442710974,5.75665451848555,0.352
-2.12587187483263,5.80330566307397,0.353
-2.17229612245087,5.84969227745088,0.354
-2.21799736112432,5.89578963674515,0.355
-2.26297096174924,5.94155054526563,0.356
-2.30718790130143,5.98695073138672,0.357
-2.35064460219259,6.03195786662823,0.358
-2.39337524332756,6.0764840730981,0.359
-2.43537903780409,6.12049633065577,0.36
-2.47664441145838,6.1639635475808,0.361
-2.51714568173025,6.20678884403341,0.362
-2.55690280677199,6.24892567721394,0.363
-2.59597491771865,6.29035969106439,0.364
-2.63435661715234,6.33108040975519,0.365
-2.67205657033865,6.37105672002446,0.366
-2.70907972601829,6.4102161446146,0.367
-2.74544380688312,6.44852191638988,0.368
-2.7812028955791,6.4859207602973,0.369
-2.81632372572422,6.52241520431818,0.37
-2.85080109399113,6.5579805452993,0.371
-2.88466454475126,6.59254367179037,0.372
-2.91795734015099,6.62612151796446,0.373
-2.95067554124749,6.6586861436712,0.374
-2.98281839214962,6.69016608136307,0.375
-3.01440777326875,6.72054290580739,0.376
-3.04548784519308,6.74979581467673,0.377
-3.07607196689459,6.77790479545551,0.378
-3.10614508077316,6.80484054387735,0.379
-3.13572626358215,6.83054934037574,0.38
-3.16485346379437,6.85508584107415,0.381
-3.19354003685771,6.8784512004683,0.382
-3.22176662990646,6.90055934354523,0.383
-3.24956593438012,6.92139877911146,0.384
-3.27696458522372,6.94099692034311,0.385
-3.30392326736349,6.95926677546811,0.386
-3.33042966571765,6.97618469468222,0.387
-3.35652629754249,6.99174456861441,0.388
-3.38215878641597,7.00589954543199,0.389
-3.40726283337393,7.01863457502735,0.39
-3.43186109936417,7.02987981055767,0.391
-3.45595166238479,7.03964411399644,0.392
-3.47944504880492,7.04787993845678,0.393
-3.50233199315307,7.05451860474432,0.394
-3.52460557624228,7.05959301720965,0.395
-3.54619147784353,7.06304289924843,0.396
-3.56704327210784,7.06479148345865,0.397
-3.58716745467376,7.06488243051983,0.398
-3.6065051738201,7.06326644506405,0.399
-3.62497395909827,7.05990085704144,0.4
-3.64257851179129,7.05475286726338,0.401
-3.65928188108579,7.04781482185567,0.402
-3.67502236701265,7.03906459679207,0.403
-3.68977045806489,7.02849491552393,0.404
-3.7035082394573,7.01610260271718,0.405
-3.71619097190263,7.00189479585057,0.406
-3.72779196826117,6.98593330693637,0.407
-3.73826756832093,6.96820211546596,0.408
-3.74757601329263,6.94868813011083,0.409
-3.75570683896898,6.92742086602624,0.41
-3.76260898813333,6.90442976580356,0.411
-3.768249729519,6.87971441273088,0.412
-3.77259099458477,6.85333433684252,0.413
-3.7756057827989,6.82529295033661,0.414
-3.777265727409,6.79562064344016,0.415
-3.77754494876675,6.76435241347781,0.416
-3.77642038212448,6.73152668775319,0.417
-3.77388712947679,6.6971517914299,0.418
-3.76991891296173,6.66127847880346,0.419
-3.76448912247542,6.62395635022654,0.42
-3.75761317350051,6.58517265112787,0.421
-3.74931861438231,6.54498657903924,0.422
-3.73957651713605,6.50341647534675,0.423
-3.72841126103634,6.46046767647782,0.424
-3.71582016215845,6.4162150063348,0.425
-3.70182435795489,6.37069388788737,0.426
-3.68647476669083,6.32396063342992,0.427
-3.66979418259234,6.2760619136778,0.428
-3.65180346303583,6.2270438465113,0.429
-3.63253923896161,6.17694726925166,0.43
-3.61201878038044,6.12582240293498,0.431
-3.59028818048937,6.07374284553425,0.432
-3.56737090286363,6.02074843555741,0.433
-3.54330514248541,5.9668909170054,0.434
-3.51810709785621,5.91222833439278,0.435
-3.49183244368711,5.85679499656517,0.436
-3.46452763190264,5.80065579965022,0.437
-3.43621800021383,5.74385973084852,0.438
-3.406945833563,5.68643293979255,0.439
-3.37675167705276,5.62842268608607,0.44
-3.34568504455669,5.56987425345831,0.441
-3.31378298293887,5.51082296274588,0.442
-3.28107686636274,5.45129262879147,0.443
-3.24760228343746,5.39130962893164,0.444
-3.21340374155612,5.33090936785948,0.445
-3.17850257140201,5.2700890562651,0.446
-3.1429228908439,5.20880789210945,0.447
-3.10669353221745,5.14712198887823,0.448
-3.06984137869189,5.08500037212106,0.449
-3.0323717926268,5.02247235642675,0.45
-2.99429634116745,4.959524573438,0.451
-2.95562085159343,4.89615405843801,0.452
-2.91636853799035,4.83235377377692,0.453
-2.87657023547349,4.76811664451614,0.454
-2.836232137145,4.70348752898291,0.455
-2.795389960366,4.63844659754223,0.456
-2.75407168282856,4.57302637261957,0.457
-2.71231943037166,4.50720432597562,0.458
-2.67016138106449,4.44099037871855,0.459
-2.62759952013109,4.3744166870752,0.46
-2.58465892919302,4.30751498042128,0.461
-2.54136832025147,4.24026846055372,0.462
-2.4977699808249,4.17270814277676,0.463
-2.45387398052746,4.10484748449578,0.464
-2.40966461935066,4.0366958394994,0.465
-2.36517674695072,3.96823040063262,0.466
-2.32040692931112,3.89945916071856,0.467
-2.27535991600472,3.8304068588115,0.468
-2.23003609048735,3.76107043480096,0.469
-2.18442093569838,3.69148563900739,0.47
-2.1385340003406,3.62164291541671,0.471
-2.09239049390273,3.55155074795184,0.472
-2.04598835291455,3.48122150724487,0.473
-1.99932013324766,3.41063601324592,0.474
-1.95239863322765,3.33981256398997,0.475
-1.90525080688445,3.26880881866732,0.476
