Drag (N),Lift (N),Time (s)
-1.263,2.472,0
-1.24956898599562,2.47127171005368,0.001
-1.23620168862523,2.47057785544611,0.002
-1.22291926861982,2.46988554361402,0.003
-1.20972960845978,2.46920581602621,0.004
-1.19668199890487,2.46857213622904,0.005
-1.18381255052557,2.46797648882989,0.006
-1.17113006163942,2.46742564540941,0.007
-1.15863583450505,2.46692828870121,0.008
-1.14636563049162,2.46649254853808,0.009
-1.13435779445566,2.46609952836683,0.01
-1.12263245878679,2.46575380761344,0.011
-1.11118553335767,2.46549697116939,0.012
-1.10004237248336,2.46530734056144,0.013
-1.08919619252127,2.46517389902601,0.014
-1.07869953120471,2.46510680182985,0.015
-1.06856964149849,2.46508861508028,0.016
-1.05879386095387,2.46508827479038,0.017
-1.04937710346444,2.46517666800095,0.018
-1.04033040434876,2.46535166049561,0.019
-1.0316626462418,2.46554102707169,0.02
-1.02338040284431,2.46579496256052,0.021
-1.01548869076359,2.46613105958424,0.022
-1.00799048323669,2.46650697906677,0.023
-1.0008600938705,2.46691541029236,0.024
-0.994102680127582,2.46740636096193,0.025
-0.987728818090862,2.46795075878762,0.026
-0.981713451331696,2.46853911444012,0.027
-0.976055707697459,2.46916846043949,0.028
-0.970757392424762,2.46981286921848,0.029
-0.965794570782802,2.47047759009689,0.03
-0.961130372500836,2.4711960038282,0.031
-0.956748876306912,2.47195342202038,0.032
-0.952645066819676,2.47273217793557,0.033
-0.94879166462818,2.47351089875651,0.034
-0.945180314022651,2.47432779791632,0.035
-0.941773992107963,2.47515402487882,0.036
-0.938555902659556,2.47600128347466,0.037
-0.935506784793149,2.4768663126763,0.038
-0.932613550437144,2.47770034042143,0.039
-0.929840777999224,2.47850802854202,0.04
-0.927176150258723,2.47931734044091,0.041
-0.92458113754182,2.48007732090206,0.042
-0.922004514423107,2.48082703135659,0.043
-0.919440275816602,2.48156242851262,0.044
-0.916864423203753,2.48224148950534,0.045
-0.914245471918453,2.48286893979627,0.046
-0.911554848524108,2.48348845071784,0.047
-0.90877192035553,2.48406180716146,0.048
-0.905868633278926,2.48457882515265,0.049
-0.902857518194188,2.48506000510647,0.05
-0.899713838714939,2.48547647982662,0.051
-0.89641604154031,2.48581582462929,0.052
-0.892962348929199,2.4861058041375,0.053
-0.889315577651953,2.48631624987443,0.054
-0.885450198961141,2.48643333677023,0.055
-0.881366864534783,2.48647428517259,0.056
-0.877068637387449,2.48642224160163,0.057
-0.872543438887757,2.48626595188003,0.058
-0.867778294567352,2.48603145218705,0.059
-0.862768414492718,2.48572008042788,0.06
-0.857540837106256,2.48529962523368,0.061
-0.852105478015226,2.4847872801305,0.062
-0.846460055024212,2.48416858298954,0.063
-0.840622388923746,2.48344018309163,0.064
-0.834606880392533,2.48264507229136,0.065
-0.82842802822879,2.48180464759528,0.066
-0.822083577766032,2.48089780084683,0.067
-0.815636082329933,2.47994094979977,0.068
-0.809099628791431,2.47893309484353,0.069
-0.802524706918473,2.47791261962325,0.07
-0.795904795168377,2.47688899045475,0.071
-0.789296920744286,2.47591201282671,0.072
-0.78274196239625,2.47495663528386,0.073
-0.776272947173241,2.47401710426308,0.074
-0.769922761173722,2.47311969488201,0.075
-0.76372286168293,2.47230648552126,0.076
-0.757697359390192,2.4715929795554,0.077
-0.751851665687739,2.47100869459128,0.078
-0.746205072723895,2.47054623699927,0.079
-0.740801673743629,2.47020809543115,0.08
-0.735664557871891,2.47001660987185,0.081
-0.730796364513027,2.4699769863297,0.082
-0.726201960918362,2.47008484991109,0.083
-0.721891835301364,2.47036018386773,0.084
-0.717865532058422,2.4708389967851,0.085
-0.714134835222611,2.4714592773264,0.086
-0.710720861434341,2.47222517009144,0.087
-0.707618945233577,2.47316917677224,0.088
-0.704799996767719,2.47427165738274,0.089
-0.702279670868718,2.47553032981614,0.09
-0.70004809931489,2.4769790787626,0.091
-0.698109918872436,2.4785729383931,0.092
-0.696445697452827,2.48030585629528,0.093
-0.695038050941429,2.48221159052388,0.094
-0.693855860084539,2.48428538604999,0.095
-0.692884883820256,2.48651522717017,0.096
-0.692129708389642,2.48888345755525,0.097
-0.691561189346551,2.49139251960018,0.098
-0.691153447383492,2.49402305805197,0.099
-0.690861895972079,2.49674338861386,0.1
-0.690681561499169,2.49957903382607,0.101
-0.690569658988856,2.5024904294845,0.102
-0.690475777503421,2.50545897017879,0.103
-0.690377550680388,2.50848591679007,0.104
-0.690268190470332,2.51155779521526,0.105
-0.690108550323412,2.51464767483214,0.106
-0.689870251251145,2.51773145202108,0.107
-0.689528436061544,2.5208097666553,0.108
-0.689051970845594,2.52383489749808,0.109
-0.688435783062906,2.52682517736291,0.11
-0.687645903137498,2.5297610730223,0.111
-0.686657129008574,2.5326133579891,0.112
-0.685443034873425,2.53535902739559,0.113
-0.683985121431393,2.53801625537972,0.114
-0.682272983023495,2.54055124069756,0.115
-0.680274401966907,2.54294300124439,0.116
-0.677957811256999,2.54519119882745,0.117
-0.675319895636945,2.54732241710896,0.118
-0.672373191479317,2.54929277800652,0.119
-0.669095945593389,2.55106559680198,0.12
-0.66547890283683,2.55272042142434,0.121
-0.661517307220964,2.55420440978155,0.122
-0.657213085744157,2.55547306392956,0.123
-0.652557840584781,2.55656073558416,0.124
-0.647575967236914,2.55749168205447,0.125
-0.642261220458508,2.55822708089902,0.126
-0.636623710220919,2.5587881252595,0.127
-0.630678601733922,2.55915987959379,0.128
-0.62443187456176,2.55934124918829,0.129
-0.617893658015281,2.55935528073815,0.13
-0.611062693134535,2.55920424987603,0.131
-0.603970319517098,2.55886549129375,0.132
-0.596645956676787,2.55834914453512,0.133
-0.589121314314765,2.55766697812886,0.134
-0.581396395507139,2.55683218362689,0.135
-0.573493039595859,2.55582516893921,0.136
-0.565461280780161,2.55464567291747,0.137
-0.557316798147168,2.55329079603453,0.138
-0.549073380251357,2.55177001205513,0.139
-0.540764221862729,2.55011713201977,0.14
-0.532428433845129,2.54834096972785,0.141
-0.524055842147908,2.54641542001923,0.142
-0.515669508079785,2.54436803067307,0.143
-0.507305378490408,2.54219367900634,0.144
-0.498958111277625,2.53988342488634,0.145
-0.490623666163385,2.53746653958635,0.146
-0.482317078690125,2.53495757150165,0.147
-0.4740520036717,2.53230237787771,0.148
-0.465828968097016,2.52954981600269,0.149
-0.457645601660538,2.52669324262956,0.15
-0.449479076818392,2.52370524809668,0.151
-0.441315988659643,2.52059259579986,0.152
-0.433154387750109,2.51738519749167,0.153
-0.424966131896328,2.51405262885271,0.154
-0.416752218408224,2.51059295977376,0.155
-0.408512926704238,2.50700934112643,0.156
-0.400204702734307,2.50330002218357,0.157
-0.391803105331197,2.49946166241079,0.158
-0.383303327959637,2.49547921721217,0.159
-0.374700316691603,2.4913393675017,0.16
-0.365970691062199,2.48704099287636,0.161
-0.357084940938678,2.48259875786574,0.162
-0.348023860890626,2.47801028767694,0.163
-0.338788864785368,2.47329696827373,0.164
-0.329351398863113,2.46843213849808,0.165
-0.319699737799679,2.46342466877818,0.166
-0.309816289707062,2.45826464467607,0.167
-0.299719858953402,2.45299013894681,0.168
-0.289381939980618,2.4475945176384,0.169
-0.278818766909411,2.44209076455981,0.17
-0.268009474421956,2.43647431092702,0.171
-0.256999502603395,2.43076169836762,0.172
-0.24577519443967,2.42492893262729,0.173
-0.234368130056785,2.41902155657573,0.174
-0.222814942238571,2.41307035191504,0.175
-0.211142627424101,2.40709787977743,0.176
-0.199381594256304,2.4010873895946,0.177
-0.187576345584341,2.39506469352812,0.178
-0.175787532285638,2.38903330311345,0.179
-0.164056421391421,2.38301928508628,0.18
-0.152414478632072,2.3770609646524,0.181
-0.140909000461411,2.37120088774948,0.182
-0.129590614334257,2.36547575873708,0.183
-0.118523818129846,2.35989049294262,0.184
-0.107766518582536,2.35449431324478,0.185
-0.0973832497320762,2.34929540214826,0.186
-0.0874180241975365,2.34434478729317,0.187
-0.0779166930089901,2.33966982164738,0.188
-0.0689276514755258,2.3353178076428,0.189
-0.0605012828861559,2.33133148158879,0.19
-0.0526725354730586,2.32773892402223,0.191
-0.0454879174554622,2.32454072848189,0.192
-0.0389911151049496,2.32178908114869,0.193
-0.0332190050696588,2.31948721492907,0.194
-0.028187622215705,2.31762139121548,0.195
-0.0239229736139328,2.31621120668038,0.196
-0.0204436137797236,2.31528949339148,0.197
-0.0177353419006011,2.314853477438,0.198
-0.0158183008714165,2.31492119392928,0.199
-0.0146715577990692,2.31547256759518,0.2
-0.0143285590334353,2.31653331771397,0.201
-0.0147616667637337,2.31810742446091,0.202
-0.0159377240299979,2.32018219761423,0.203
-0.0178547035519553,2.32272926104263,0.204
-0.0204732415189685,2.32574419292293,0.205
-0.0237689891939907,2.32920299161942,0.206
-0.0277009480511853,2.33307854188467,0.207
-0.0322093309731592,2.33735651415892,0.208
-0.0372379564742219,2.34200005058273,0.209
-0.0427673374955088,2.34702880791568,0.21
-0.048694965407678,2.35234717026984,0.211
-0.0549407793184771,2.35794130676099,0.212
-0.0614195379175868,2.36382407730809,0.213
-0.0680693035901695,2.36992400535418,0.214
-0.0747739977645258,2.37615852123638,0.215
-0.0814453440532437,2.3825476902203,0.216
-0.0879803079140364,2.38907981886104,0.217
-0.0942972957896596,2.39566856674356,0.218
-0.100301092986586,2.40225226516617,0.219
-0.105869989012098,2.40879827142199,0.22
-0.110926604633587,2.41528486368372,0.221
-0.115378531400207,2.42160238712395,0.222
-0.119130164117099,2.42773754864145,0.223
-0.122096474531371,2.43368167886659,0.224
-0.124216219003722,2.43937488408232,0.225
-0.125412691147921,2.44473311253438,0.226
-0.125609186846385,2.44973422833733,0.227
-0.1247459950363,2.45433481492865,0.228
-0.122769307148041,2.4585031862857,0.229
-0.119607643869962,2.46220367714743,0.23
-0.115208906776194,2.46540037493101,0.231
-0.109578731578643,2.46805416806709,0.232
-0.102683702586272,2.47014913645092,0.233
-0.0944407979696541,2.47163414004788,0.234
-0.0848172052468341,2.47249817637348,0.235
-0.073861443946034,2.47271512838895,0.236
-0.0615524954100918,2.47227597060521,0.237
-0.0478614334050313,2.47121315755427,0.238
-0.0328127386718376,2.46951516848687,0.239
-0.0164665887136003,2.46718322036127,0.24
0.00117786622583238,2.46421294569498,0.241
0.0200628582196702,2.46060544303279,0.242
0.0400870913809763,2.45641048340214,0.243
0.0611589254235053,2.45166358751298,0.244
0.0832300961697839,2.44634742422842,0.245
0.106190213220029,2.44053399652598,0.246
0.129906107282179,2.43425592972282,0.247
0.154267176963911,2.42753015263959,0.248
0.179161907137848,2.42043841173158,0.249
0.204490585521073,2.41299058536979,0.25
0.2301326775687,2.40525089941358,0.251
0.255945858720554,2.39732225881464,0.252
0.281786509138841,2.38925257208346,0.253
0.307546412419051,2.38105284915258,0.254
0.333097001097143,2.3728045754795,0.255
0.358315673048889,2.36457051535574,0.256
0.383083342353795,2.35639087984067,0.257
0.407250822649426,2.34831898746989,0.258
0.430718847980945,2.34037103131454,0.259
0.453379610547079,2.33262692070084,0.26
0.475133591087167,2.32512147239746,0.261
0.495894326714125,2.31786831270242,0.262
0.515584425173127,2.31089069370087,0.263
0.534117312276259,2.30422381296744,0.264
0.551445339761705,2.29784886344199,0.265
0.567522644694981,2.29183996962472,0.266
0.582330691607957,2.28617176751175,0.267
0.595825263620295,2.28087152806604,0.268
0.608017231004683,2.27592849806712,0.269
0.618923598732438,2.27136650720464,0.27
0.628559912335943,2.2671715312387,0.271
0.636948080926423,2.26335044359919,0.272
0.644141210405665,2.25990823948252,0.273
0.650165696112861,2.25685574741496,0.274
0.655066854192011,2.25419356285175,0.275
0.658912825062035,2.2519092929175,0.276
0.661788022282074,2.24997475043458,0.277
0.663753764027108,2.24839513892126,0.278
0.664861747029528,2.24717123946893,0.279
0.665226641266965,2.24628510096581,0.28
0.664916542804114,2.24572762384011,0.281
0.663994232212239,2.24545944903757,0.282
0.662546010606825,2.24543252887135,0.283
0.660628755821094,2.24561173897802,0.284
0.658350749499506,2.24596223167157,0.285
0.655809486470057,2.24643205510686,0.286
0.653066070158972,2.24700496949719,0.287
0.650209267259589,2.24762695965503,0.288
0.647329783050619,2.24826203289066,0.289
0.644506434600058,2.24883728186133,0.29
0.641817278979413,2.24929588330612,0.291
0.63933903336881,2.24959659076972,0.292
0.637149558988998,2.24969923933232,0.293
0.635327136723454,2.24954168040519,0.294
0.633936284873007,2.24913020345655,0.295
0.633027610859189,2.24844130025881,0.296
0.632651568802314,2.24744627114844,0.297
0.63282949072487,2.24610806748222,0.298
0.633565680545447,2.2444406824579,0.299
0.634920276369418,2.24240478918906,0.3
0.636895876510698,2.24004262392809,0.301
0.639508017101983,2.23733709310185,0.302
0.64275882370343,2.23426795605935,0.303
0.646616639756375,2.23089124277682,0.304
0.651069439657217,2.22722997902167,0.305
0.656094149712819,2.22328199513677,0.306
0.661675353148528,2.21908696926331,0.307
0.667791783440397,2.2146625114294,0.308
0.674391552218056,2.21005315943591,0.309
0.681391010524327,2.20528205287952,0.31
0.688765180071303,2.20034446371993,0.311
0.696464101010853,2.19529963436593,0.312
0.704394375137578,2.19014423910595,0.313
0.712454129669251,2.18484332994986,0.314
0.720591575401798,2.1794663189525,0.315
0.728678189746128,2.17403410289438,0.316
0.736656265983809,2.16853816108205,0.317
0.744426198961872,2.16296598996739,0.318
0.751883240833193,2.1573392942256,0.319
0.758981169757799,2.15171136551917,0.32
0.765656930797171,2.14610074575147,0.321
0.771842036827627,2.14051847261881,0.322
0.777506391319677,2.13502442760192,0.323
0.782569565590953,2.12964810415085,0.324
0.786990020232404,2.12440267867908,0.325
0.790766116555327,2.11932455458478,0.326
0.793883096096407,2.11445586114647,0.327
0.796291480185616,2.10981853905804,0.328
0.797984106242351,2.10544886792688,0.329
0.798934201829479,2.10138226729089,0.33
0.799120276978259,2.09766306301419,0.331
0.798529055266775,2.09429133635586,0.332
0.797204847107578,2.09131247733508,0.333
0.795139425019312,2.08875108038756,0.334
0.792281667898958,2.08664977437509,0.335
0.788644582790184,2.08500821243757,0.336
0.784285210059327,2.08386796703814,0.337
0.779209940834907,2.08319558910014,0.338
0.773410452867112,2.08296845274062,0.339
0.76692242349068,2.08320117915476,0.34
0.759822468445565,2.08385271807589,0.341
0.752145014926707,2.08490712613176,0.342
0.743970194964203,2.08635230516267,0.343
0.735363502153617,2.08810405299466,0.344
0.726439231419583,2.09013016280111,0.345
0.717246127049473,2.09243464202455,0.346
0.707905308009853,2.0949532054175,0.347
0.69851707781429,2.0976573054938,0.348
0.689186222489011,2.10049829380083,0.349
0.680044574624049,2.10345185072232,0.35
0.671166430312748,2.1064657571906,0.351
0.662600849216485,2.10952477502981,0.352
0.654475989204069,2.11257327560052,0.353
0.646878533527651,2.11558128542644,0.354
0.639889960753971,2.11855420939546,0.355
0.633553962219355,2.1214645676937,0.356
0.627935635527319,2.12428001167183,0.357
0.62309043470891,2.12702638162751,0.358
0.619110027792083,2.12968487749701,0.359
0.616014016822314,2.13228311848458,0.36
0.613829684007618,2.13479139818703,0.361
0.612604832522794,2.13719993315657,0.362
0.612355736518202,2.13954066287311,0.363
0.613090524939016,2.14181674516864,0.364
0.614822174949084,2.14399912000483,0.365
0.617552934381031,2.1461310500995,0.366
0.621230947341741,2.14815892810533,0.367
0.625814694561193,2.15009502369247,0.368
0.631300559240348,2.15191768035783,0.369
0.637609758305408,2.15362076073506,0.37
0.644661106252037,2.15519038531769,0.371
0.652406393374972,2.15663616832809,0.372
0.660763942651483,2.15793508685166,0.373
0.669652505948407,2.15909209858508,0.374
0.679004268802596,2.16008219899652,0.375
0.688776565868327,2.16087747260157,0.376
0.698890132124468,2.16150299635614,0.377
0.709248385574149,2.16198045815258,0.378
0.719787148736272,2.16232609901064,0.379
0.730461822871434,2.16254506821832,0.38
0.74112688702126,2.16268148330097,0.381
0.751747502156238,2.16272888206752,0.382
0.762252274977223,2.16274177356156,0.383
0.772559147986615,2.1627577743263,0.384
0.78261635570989,2.16280814316532,0.385
0.792325746593099,2.16296494378845,0.386
0.801593391586248,2.16326069474662,0.387
0.810375683118155,2.16369814626972,0.388
0.818604578499,2.1643491918568,0.389
0.826182194252215,2.16524600829889,0.39
0.833043332168076,2.16639045198787,0.391
0.839126230117626,2.16782942785248,0.392
0.844344676253444,2.1695985607042,0.393
0.848667766897147,2.17170087145441,0.394
0.852033671114447,2.17416120417959,0.395
0.854376232705338,2.17696524106055,0.396
0.855674185673708,2.18011662536861,0.397
0.855899651328079,2.18359511155473,0.398
0.855064264081638,2.18738983755279,0.399
0.853173704480411,2.19146624252007,0.4
0.850205011227889,2.19585583803681,0.401
0.846168156075858,2.20047671665454,0.402
0.841105685097596,2.20532960000364,0.403
0.835030584298973,2.21039804931123,0.404
0.828009336797113,2.21563188112964,0.405
0.820115387847917,2.22104055167546,0.406
0.811370977690122,2.22662455921362,0.407
0.80183126329953,2.232358974715,0.408
0.791528893844567,2.23823044841144,0.409
0.78052329443339,2.24422194447661,0.41
0.768935413189864,2.25032513370202,0.411
0.756815336088928,2.25656008647411,0.412
0.74418781307138,2.26289472111604,0.413
0.731140866913534,2.26937578574948,0.414
0.71779332010374,2.27603353711003,0.415
0.704189606099428,2.28280128328369,0.416
0.690441295702227,2.28973575226896,0.417
0.676601182368548,2.2968024392412,0.418
0.662762822517673,2.30401516190721,0.419
0.649054794760551,2.31140150181903,0.42
0.635488482021711,2.3189369330262,0.421
0.622110714390733,2.3265543943406,0.422
0.608986001191167,2.33425847505594,0.423
0.596139503529797,2.34198026392866,0.424
0.583662534840697,2.34968006688862,0.425
0.571606194497998,2.35733915151581,0.426
0.559972660817262,2.3649166787662,0.427
0.548791761094397,2.37239560516239,0.428
0.538087290406129,2.37974204989595,0.429
0.527891001741558,2.38691337824958,0.43
0.518249467505512,2.39390786914309,0.431
0.509153694896074,2.40065826941633,0.432
0.500643616525352,2.40720325630129,0.433
0.492695500082664,2.41350612049619,0.434
0.485331977316089,2.41955997892315,0.435
0.478580914943045,2.4253629196356,0.436
0.472435639344007,2.43093183381948,0.437
0.466880499339103,2.43622293126274,0.438
0.461910015851698,2.4413259492507,0.439
0.457558444984347,2.44624200595339,0.44
0.453766999691517,2.45099457344118,0.441
0.450480393086256,2.45563331508392,0.442
0.447645083620912,2.46019043720468,0.443
0.44522756169937,2.4646737695742,0.444
0.443190962053981,2.46917668908068,0.445
0.441440108844472,2.47370532671327,0.446
0.43991178410618,2.47828090729515,0.447
0.4385239654679,2.48292835431477,0.448
0.437212481153186,2.48763599706505,0.449
0.43591289613764,2.4924682980281,0.45
0.434500775627617,2.49740056857076,0.451
0.432918180330361,2.50245337318275,0.452
0.431148902066618,2.50761582366136,0.453
0.429105748351992,2.51286027013445,0.454
0.426772078654678,2.51819312133643,0.455
0.424051362238867,2.5235849067588,0.456
0.420943267303425,2.52902346803926,0.457
0.417447921466163,2.5345291912173,0.458
0.413544721807365,2.54002935798914,0.459
0.409157954818837,2.54552657019102,0.46
0.404264026609176,2.55099533749822,0.461
0.398909038971016,2.55642898659011,0.462
0.393070096126364,2.56185142189201,0.463
0.386693340046315,2.56724684429667,0.464
0.379750604708559,2.57261506608741,0.465
0.37226378297415,2.57802368392804,0.466
0.364238085084808,2.58342794250781,0.467
0.355690954976123,2.58889625206342,0.468
0.346629825146541,2.59444863626953,0.469
0.337015477127872,2.60008109034904,0.47
0.32692315613406,2.60582188071023,0.471
0.316393146677229,2.61168968732699,0.472
