Drag (N),Lift (N),Time (s)
0.669,1.852,0
0.669449337806128,1.83763626300711,0.001
0.669943145781667,1.82331247687557,0.002
0.670558040083483,1.80905381032523,0.003
0.671338632720766,1.79484530611375,0.004
0.672346556603704,1.78076411487297,0.005
0.673642683010479,1.76682945808182,0.006
0.675266248944875,1.7530342969386,0.007
0.677268656323844,1.739421508358,0.008
0.679695398727975,1.72602130603871,0.009
0.682576774480618,1.7128426985393,0.01
0.6859459020819,1.69991339001046,0.011
0.689842605534332,1.68724711465218,0.012
0.694283627206796,1.67485463495743,0.013
0.699301910923482,1.66278651044784,0.014
0.704926049919419,1.65106935462811,0.015
0.71116488189634,1.639700685018,0.016
0.718044678264451,1.62872002982102,0.017
0.725580203944347,1.61815835553444,0.018
0.733776489311826,1.60801968830041,0.019
0.742635511655448,1.59834703937772,0.02
0.752165364579029,1.58915229343755,0.021
0.762367788496634,1.58046847349831,0.022
0.77324282906358,1.57231210978902,0.023
0.78476494977895,1.56468691584188,0.024
0.796942092798507,1.55762334439177,0.025
0.809751687642025,1.55114511535309,0.026
0.823158747081486,1.54525680361582,0.027
0.837139612276203,1.53997797828487,0.028
0.85167370631857,1.53532432176064,0.029
0.866705741249089,1.53128023254662,0.03
0.882203389613555,1.52788146114669,0.031
0.898121305589388,1.52515189781755,0.032
0.914424829280008,1.52306427147278,0.033
0.931081848152851,1.52164403027065,0.034
0.948045359759994,1.52088343442607,0.035
0.96528373986296,1.52079091513754,0.036
0.982759135755178,1.52136612634105,0.037
1.00042714482739,1.52260456874642,0.038
1.01825423538708,1.52451552690304,0.039
1.03621736650124,1.52708733793128,0.04
1.05428463782183,1.53033471120568,0.041
1.07242100119659,1.53424271147133,0.042
1.09058914573633,1.53880563988617,0.043
1.1087533053352,1.54400888033748,0.044
1.12688552658038,1.54984845323144,0.045
1.14497141098781,1.55631119104353,0.046
1.16296326885613,1.56338043204813,0.047
1.18083561358159,1.57104790320939,0.048
1.19855586345867,1.57931138146443,0.049
1.21608491952974,1.58815711851788,0.05
1.23338651164715,1.5975522740702,0.051
1.25043153050245,1.60749835786095,0.052
1.26718148496426,1.61796869541816,0.053
1.28360421563529,1.62893639725694,0.054
1.29967915680788,1.64038686552724,0.055
1.31536660127514,1.65229340127095,0.056
1.33065015339602,1.66462932837224,0.057
1.34550431599157,1.67737928137006,0.058
1.35989683418121,1.69054169929996,0.059
1.3738014175199,1.70407496738171,0.06
1.3871798115187,1.71794713523833,0.061
1.40002658911728,1.73216129415753,0.062
1.41231338325733,1.74666785469492,0.063
1.42400824575996,1.76145263692768,0.064
1.43506490402342,1.77649444140436,0.065
1.44547647494125,1.79176519758813,0.066
1.45522009260627,1.8072309958877,0.067
1.46424625862264,1.82288557748846,0.068
1.47256492034091,1.83872176775521,0.069
1.48016220760358,1.85471875693521,0.07
1.48700981503252,1.87088776162188,0.071
1.49309953018762,1.88722737241304,0.072
1.49842548904028,1.90370662230936,0.073
1.5029989643633,1.92031462364327,0.074
1.50680033691742,1.93706692444617,0.075
1.50983083869678,1.95393303973897,0.076
1.51210810826598,1.97090031350213,0.077
1.51362990341121,1.98799636697093,0.078
1.51436733808334,2.00520190861489,0.079
1.51434264277174,2.02251216440346,0.08
1.51355615107343,2.0399310260481,0.081
1.51201059176803,2.05745616232111,0.082
1.50967741225617,2.07505634489666,0.083
1.50656328910627,2.0927315659026,0.084
1.50267775243561,2.11049430540174,0.085
1.49802888579445,2.12831138968517,0.086
1.49258821377138,2.14619130536856,0.087
1.48637382758576,2.16415178251061,0.088
1.47938797977627,2.18218153816027,0.089
1.47162582707018,2.20027074590857,0.09
1.46308587775813,2.21842678230002,0.091
1.45376417644712,2.23666517752365,0.092
1.44366546744968,2.25498994053878,0.093
1.43280727477514,2.27340937307704,0.094
1.42118681893672,2.29194701028345,0.095
1.40880400893724,2.31061316276663,0.096
1.39565661286702,2.32943952977514,0.097
1.38173133973108,2.34843793275057,0.098
1.36702051913153,2.36760811697061,0.099
1.35150710250647,2.3869950135955,0.1
1.33516554683912,2.40661455418792,0.101
1.31799722514175,2.42650123878147,0.102
1.29998829504196,2.44664371609479,0.103
1.28110050602119,2.46706140336654,0.104
1.26133935643491,2.48781784865952,0.105
1.24067976592535,2.50886769418203,0.106
1.21911581695192,2.53025071767139,0.107
1.19662900538052,2.55200262125755,0.108
1.17321773896777,2.57413886201437,0.109
1.14887846542889,2.5966319364029,0.11
1.12360709166481,2.61950773298028,0.111
1.09741088437808,2.64279782368538,0.112
1.07028332919146,2.66650298824228,0.113
1.04225792968201,2.69064137265609,0.114
1.01332000445638,2.71521836248574,0.115
0.983473625101031,2.7402349267819,0.116
0.952745280131767,2.76571954128206,0.117
0.921127055888129,2.79167530873886,0.118
0.888621158411966,2.81810741778695,0.119
0.855232682856712,2.84500822603753,0.12
0.820975183218546,2.87238949505549,0.121
0.785875753794348,2.90026877635669,0.122
0.749942919739248,2.92861492706876,0.123
0.713191900996747,2.95743179161775,0.124
0.67565358044685,2.98674416143438,0.125
0.637348935247252,3.01652851179459,0.126
0.598306117259183,3.04676484818586,0.127
0.558588641411007,3.07745589057034,0.128
0.518237642240755,3.10859047577568,0.129
0.477298347555898,3.14014845478946,0.13
0.435834963098908,3.17215241278406,0.131
0.393889323330954,3.20457011914128,0.132
0.351533597658406,3.237364638507,0.133
0.308831651168736,3.27054550396465,0.134
0.265838065887773,3.30408899244959,0.135
0.222595548692869,3.33797943851403,0.136
0.179163263164667,3.37218286765566,0.137
0.135597928891292,3.40669878747892,0.138
0.091943670671007,3.4415141068706,0.139
0.0482579455020773,3.47661089427371,0.14
0.00458828427138566,3.51197687404981,0.141
-0.0390122293550022,3.54759403463611,0.142
-0.0825212378674936,3.58343133369471,0.143
-0.12587626124114,3.6194588520474,0.144
-0.169026948331902,3.65568649601603,0.145
-0.211934017292713,3.69208461373415,0.146
-0.254582006847096,3.72861480456768,0.147
-0.296895596464844,3.76527464921077,0.148
-0.338835371911395,3.80203795113179,0.149
-0.380385349383099,3.83885322369518,0.15
-0.421485784242096,3.87568526440317,0.151
-0.462075068762633,3.91254991258987,0.152
-0.502119795546608,3.94939596281479,0.153
-0.541584243720828,3.98620910287822,0.154
-0.580440595418917,4.02298425022858,0.155
-0.618667024485653,4.05969425052639,0.156
-0.656247031218602,4.09633037753795,0.157
-0.693190378583997,4.13287950071336,0.158
-0.72948887880745,4.16934907583365,0.159
-0.765137247324682,4.205696797281,0.16
-0.80015950568622,4.24193821690272,0.161
-0.834538623760077,4.27807938771861,0.162
-0.868292644408104,4.31409477325362,0.163
-0.901439120934063,4.34999923755245,0.164
-0.933992837582071,4.3857893619151,0.165
-0.965931687619444,4.42144865778918,0.166
-0.997284534070461,4.45698528808201,0.167
-1.02805698834438,4.49240039471633,0.168
-1.05821333860436,4.52768483812865,0.169
-1.08778595048474,4.56284086544451,0.17
-1.11678648439335,4.59783313813874,0.171
-1.14521228241962,4.63264984485454,0.172
-1.17306680433074,4.66725867300758,0.173
-1.20037830000718,4.70164817323936,0.174
-1.22715948006248,4.73582220370377,0.175
-1.25340824323627,4.76973133615465,0.176
-1.27916062827879,4.80337572618288,0.177
-1.30445672091953,4.8367503818248,0.178
-1.32930854621186,4.86980166994609,0.179
-1.35372239698141,4.90252222899585,0.18
-1.37774951925772,4.93490040317154,0.181
-1.40140643535012,4.96690303328002,0.182
-1.42472103108766,4.99851560641512,0.183
-1.44769449117467,5.02976740817249,0.184
-1.47034687055655,5.06060430792991,0.185
-1.49270105472987,5.09103014186228,0.186
-1.51477928950182,5.12107886673385,0.187
-1.53656720856836,5.15070567088388,0.188
-1.55811099980961,5.17989771252008,0.189
-1.57943232238448,5.20868119259468,0.19
-1.60053731713423,5.23702517580568,0.191
-1.6214483495745,5.26492268526664,0.192
-1.64219217100068,5.29239343288021,0.193
-1.662805125021,5.31941669165794,0.194
-1.68333748577942,5.34599892346275,0.195
-1.70381690329635,5.37216029525825,0.196
-1.72429524786237,5.39787101073944,0.197
-1.74480775277344,5.42313179741809,0.198
-1.7653928210675,5.44794389469145,0.199
-1.78608146713418,5.47229736753329,0.2
-1.80689668618854,5.49616546448785,0.201
-1.82787168529593,5.51954493525372,0.202
-1.84902903770093,5.54240424073853,0.203
-1.87037993443041,5.56476583377869,0.204
-1.89192107635948,5.58661943219365,0.205
-1.91366371724683,5.60792741746026,0.206
-1.93561390289567,5.62872751566359,0.207
-1.957796611846,5.64897851016261,0.208
-1.98017604082632,5.66867104021512,0.209
-2.00275516574279,5.68778897735624,0.21
-2.02554163464782,5.70635500952725,0.211
-2.04851465083801,5.72436167988663,0.212
-2.07167901640518,5.74177441287716,0.213
-2.09501110896452,5.75860829907557,0.214
-2.11852136097659,5.77485743690979,0.215
-2.14216735215317,5.79051403003738,0.216
-2.16595176808852,5.80556252529556,0.217
-2.18987434229173,5.81998643985401,0.218
-2.21388591387136,5.83377831657253,0.219
-2.2379743037988,5.84691734497295,0.22
-2.26209815104801,5.85942019720414,0.221
-2.28623906474994,5.87124021816718,0.222
-2.31037320369426,5.88238416807375,0.223
-2.33447022172205,5.89285604578933,0.224
-2.35849997806898,5.90265370285306,0.225
-2.38243012174987,5.91175229876533,0.226
-2.40623004204707,5.92016078999117,0.227
-2.42985519895982,5.92788127384144,0.228
-2.45330757393008,5.93490975782662,0.229
-2.4765615557279,5.94124437872275,0.23
-2.49958987700244,5.94689187290988,0.231
-2.5223838143781,5.9518360062466,0.232
-2.54489739270691,5.9560897676571,0.233
-2.56712704125255,5.95965807860203,0.234
-2.58906032201531,5.96255127203673,0.235
-2.61068475176959,5.96477922614028,0.236
-2.63196746584018,5.96634550933571,0.237
-2.65289594164925,5.96726357767991,0.238
-2.67346539852526,5.96753414144157,0.239
-2.69364026643019,5.96717087192092,0.24
-2.71341006881046,5.96616388164773,0.241
-2.73277204210587,5.96451685920195,0.242
-2.75171335930606,5.96222782705796,0.243
-2.77019748438508,5.95933244672199,0.244
-2.78823028358567,5.95584881898016,0.245
-2.8057961504439,5.95176448183825,0.246
-2.82287387767597,5.94709916017383,0.247
-2.83946176866959,5.94187159406395,0.248
-2.85557443691537,5.9360761277096,0.249
-2.87119947683411,5.92973834944211,0.25
-2.88630437162334,5.92287670211963,0.251
-2.90089868034717,5.91553622588606,0.252
-2.91501492517427,5.90770871112826,0.253
-2.9286571140518,5.89940643729476,0.254
-2.94182641637737,5.89067143931583,0.255
-2.95452803852747,5.88150904258228,0.256
-2.96676838399068,5.87194937395704,0.257
-2.97854370237986,5.86200858249887,0.258
-2.9898523260442,5.85170351463448,0.259
-3.00069464981606,5.84103702450839,0.26
-3.01107531296491,5.83003108880387,0.261
-3.02097116084443,5.81869016069176,0.262
-3.03038990205525,5.80703673435064,0.263
-3.03933386887165,5.79508223623944,0.264
-3.04779160326792,5.7828347452585,0.265
-3.05575184578986,5.77030776521022,0.266
-3.06323303567062,5.75751688561887,0.267
-3.07022039928252,5.74447090632213,0.268
-3.07671149523436,5.73119761064591,0.269
-3.08273409691746,5.71769627433144,0.27
-3.08829069050655,5.70396602980877,0.271
-3.09338629002318,5.69005414383975,0.272
-3.09803199256543,5.67596008907952,0.273
-3.10223400046562,5.66171306396862,0.274
-3.10599716637805,5.64733288585503,0.275
-3.10933817381256,5.63281391461022,0.276
-3.11227878479562,5.61820057976605,0.277
-3.11481340013853,5.60350867141278,0.278
-3.1169522217174,5.58875192875565,0.279
-3.11871131632538,5.573952377988,0.28
-3.1201044943719,5.55912646836733,0.281
-3.12111847499707,5.54428786695881,0.282
-3.12177781071965,5.52946744962069,0.283
-3.12208713629446,5.5146758119497,0.284
-3.12206360350284,5.49990759045631,0.285
-3.12171926551962,5.48519494423525,0.286
-3.1210753184545,5.47053280105178,0.287
-3.12014400086755,5.45592424328461,0.288
-3.11896517572683,5.44139336253865,0.289
-3.11754132336406,5.42694532475224,0.29
-3.11587810531562,5.41258207215086,0.291
-3.11401296474673,5.398327885376,0.292
-3.11195291808469,5.38419417193724,0.293
-3.10971184264544,5.37017135909281,0.294
-3.10730033010093,5.35626611002044,0.295
-3.10471841369378,5.34247942459039,0.296
-3.10196928002167,5.32879327265909,0.297
-3.0990481125719,5.31522037991639,0.298
-3.09595522327749,5.30175209691348,0.299
-3.0926737379289,5.2883856127722,0.3
-3.0891990239991,5.27511755630092,0.301
-3.08553121552933,5.26194376817167,0.302
-3.0816512646756,5.24885775011637,0.303
-3.07755201526992,5.2358694108014,0.304
-3.07323234732828,5.22295122559332,0.305
-3.06868293573881,5.21008888690708,0.306
-3.06391710148405,5.19728922951752,0.307
-3.05891760200546,5.18451758625274,0.308
-3.05365510576007,5.17179530575179,0.309
-3.04815137069858,5.1591129944344,0.31
-3.04241472008479,5.14643877853464,0.311
-3.03642219733937,5.13375630762088,0.312
-3.03018941307033,5.12106121275517,0.313
-3.02369989099702,5.10833751429401,0.314
-3.01695267661275,5.09556424245236,0.315
-3.0099517451842,5.08272168320165,0.316
-3.00271577887165,5.06978628159002,0.317
-2.9952140150156,5.05676801098242,0.318
-2.98745324061744,5.04366108939358,0.319
-2.97944330028568,5.03043602486387,0.32
-2.97116249227538,5.01710453586287,0.321
-2.96262515509217,5.00364475545447,0.322
-2.95383241347088,4.99006377493516,0.323
-2.94478094502213,4.97632793532484,0.324
-2.93547217953498,4.96244941055153,0.325
-2.92590590572267,4.9483919288731,0.326
-2.91608105031141,4.93415792329477,0.327
-2.90600478641325,4.91973946665561,0.328
-2.89569222822829,4.90511092031769,0.329
-2.88513290223156,4.89025605762124,0.33
-2.87433199714885,4.87517965151106,0.331
-2.86330503586947,4.85985600497804,0.332
-2.85204529551564,4.84428864787385,0.333
-2.84057638317608,4.8284680950551,0.334
-2.82891364692982,4.81238318453067,0.335
-2.81705876581639,4.79601233386799,0.336
-2.80501867538231,4.7793431287266,0.337
-2.79280850624438,4.76237156713359,0.338
-2.78044411691731,4.74509193251061,0.339
-2.76792671935663,4.7274982970395,0.34
-2.7552781120035,4.70957705474095,0.341
-2.74250819043203,4.69133676337529,0.342
-2.72961166123432,4.6727841140434,0.343
-2.71661164237129,4.65391484729527,0.344
-2.70352479812429,4.63470910479887,0.345
-2.69033951637704,4.61517283190816,0.346
-2.67706520684186,4.59530841638569,0.347
-2.66372102210502,4.5751021770896,0.348
-2.65029264220159,4.55454787044249,0.349
-2.63677861350892,4.53366568291296,0.35
-2.62318477388112,4.51244592901325,0.351
-2.60952130039232,4.49089986750184,0.352
-2.59579984561998,4.46901017138138,0.353
-2.58200780322395,4.4467913704106,0.354
-2.56814624240884,4.42426999088744,0.355
-2.554218287748,4.40142400719303,0.356
-2.54022977820214,4.37826833965092,0.357
-2.52619755395377,4.35478753339848,0.358
-2.5121214483538,4.33101283727093,0.359
-2.49799967562148,4.30694480211518,0.36
-2.48384893754445,4.28257545089879,0.361
-2.46965818025081,4.25795035480705,0.362
-2.45543062753506,4.23307486189407,0.363
-2.44117509137869,4.20794111969466,0.364
-2.42688190966577,4.18259059975865,0.365
-2.41255329046322,4.15702676725837,0.366
-2.39818983329395,4.13123841636379,0.367
-2.38377643252566,4.10526619121406,0.368
-2.36931498017883,4.07911839807147,0.369
-2.35480375834382,4.05277706305137,0.37
-2.34022972291592,4.02628538202543,0.371
-2.3255797403702,3.9996613072545,0.372
-2.31085139736788,3.97288259673008,0.373
-2.29603839018651,3.945991624837,0.374
-2.2811576287381,3.91898799857315,0.375
-2.26618852086414,3.89187532482365,0.376
-2.2511244320916,3.86470071775864,0.377
-2.23596916779829,3.83745551950557,0.378
-2.22072092404569,3.81014270071766,0.379
-2.20536009455809,3.78279508745005,0.38
-2.18989305363906,3.75542204702367,0.381
-2.17431374719452,3.72803239878557,0.382
-2.15862403226336,3.70064656438137,0.383
-2.14282031770902,3.67326205459512,0.384
-2.12689633193049,3.64590205821134,0.385
-2.11084780706831,3.61857341568062,0.386
-2.09467802256629,3.59130577520682,0.387
-2.07836530721682,3.5641161748658,0.388
-2.06191126141374,3.53700411335077,0.389
-2.04530080380007,3.50998677065338,0.39
-2.02851748641713,3.48308797077431,0.391
-2.01157558449261,3.45629451979592,0.392
-1.99444980091746,3.42963060867373,0.393
-1.97714583777616,3.40310238533684,0.394
-1.95965517836911,3.37670342446011,0.395
-1.94196448213636,3.35046128602981,0.396
-1.92407846495428,3.32437350857541,0.397
-1.90599592513966,3.29844027011131,0.398
-1.88770288035908,3.27268018723044,0.399
-1.86919375394453,3.2470947809328,0.4
-1.85048050845564,3.22168802096565,0.401
-1.83156158281704,3.19647864366666,0.402
-1.81242991613974,3.17147466344691,0.403
-1.79308061838096,3.14669088437082,0.404
-1.77351162894601,3.12212657798963,0.405
-1.75372411626857,3.09778695277338,0.406
-1.7337257943131,3.07368476933963,0.407
-1.71349058249596,3.0498097336341,0.408
-1.69302744410989,3.02617765451045,0.409
-1.6723571036946,3.00276314466731,0.41
-1.6514629309896,2.97955996541508,0.411
-1.63032820150578,2.9566054194271,0.412
-1.60898312941752,2.93389046475282,0.413
-1.58740860335229,2.9114010112157,0.414
-1.56561115259046,2.88915638876308,0.415
-1.54360659723479,2.86714557575855,0.416
-1.52138082588602,2.84537326692162,0.417
-1.4989249051055,2.82385563428224,0.418
-1.47626507485979,2.80257473344547,0.419
-1.45338882945006,2.78150154862709,0.42
-1.43029289485503,2.76066258367557,0.421
-1.40699113881196,2.74003952571022,0.422
-1.38348660867731,2.71960684291646,0.423
-1.35976949380314,2.69937225773147,0.424
-1.33585488521726,2.67933653927853,0.425
-1.31174419885453,2.65946273290062,0.426
-1.28744668214712,2.63977090144593,0.427
-1.26297847466751,2.62024512795386,0.428
-1.23834212725036,2.60086985361896,0.429
-1.21354149583107,2.58165409571168,0.43
-1.18859809950059,2.5625968814841,0.431
-1.16352491137766,2.54367985367095,0.432
-1.13832555962575,2.52491745385172,0.433
-1.11302371224317,2.50628387969122,0.434
-1.08762969052079,2.48777715002557,0.435
-1.06214394866758,2.46940806335839,0.436
-1.03659131465396,2.45116974915143,0.437
-1.0109880927615,2.43305443533172,0.438
-0.985342935269669,2.41507190774974,0.439
-0.959660346721457,2.39722721348956,0.44
-0.933956432002464,2.37950815565865,0.441
-0.908243737970496,2.36192292999224,0.442
-0.882533798721267,2.34446373119988,0.443
-0.856849580531324,2.32712265308798,0.444
-0.831178941449554,2.30991707653914,0.445
-0.805532777091773,2.2928393298768,0.446
-0.779936662582161,2.27589252277907,0.447
-0.754413664132052,2.25907748505399,0.448
-0.728967540358294,2.24240223445645,0.449
-0.703605044457365,2.22588566354735,0.45
-0.678350671366545,2.2095205193562,0.451
-0.653237478250973,2.19330799529786,0.452
-0.628281431141007,2.17727441416592,0.453
-0.603487088431266,2.16142239157996,0.454
-0.578879072705942,2.14576447608817,0.455
-0.554483942789057,2.1303092310022,0.456
-0.530321432187936,2.11505417963483,0.457
-0.506397307768053,2.10000899468894,0.458
-0.482720716417419,2.08520939773296,0.459
-0.459317559425501,2.07062392709103,0.46
-0.436206456273976,2.05628140098623,0.461
-0.413387597670461,2.04222900347294,0.462
-0.390904314495771,2.02842457420503,0.463
-0.368764656668245,2.01488773396703,0.464
-0.346978887103207,2.00164020824587,0.465
-0.325565668551983,1.98864193868996,0.466
-0.304538284124624,1.97592056504099,0.467
-0.283912528472354,1.96351257149141,0.468
-0.263707692820479,1.95139224730459,0.469
-0.243928665716063,1.93956734231593,0.47
-0.224590515690694,1.92807427699116,0.471
-0.20570549774566,1.91687977783984,0.472
-0.187283178658311,1.90598967349073,0.473
-0.169328459789811,1.89544929255591,0.474
-0.151830901753084,1.88521672831846,0.475
-0.134768705938139,1.8753041427789,0.476
-0.118150284737723,1.86573945818168,0.477
-0.101973800029251,1.85649138379769,0.478
