Drag (N),Lift (N),Time (s)
-0.871000000000001,0.403,0
-0.860369724831992,0.412838578628437,0.001
-0.849736657466672,0.422617235763764,0.002
-0.839043345422575,0.432208579979692,0.003
-0.828247402058051,0.441565985389836,0.004
-0.817312276306651,0.450624441464468,0.005
-0.806225064508629,0.459254428766647,0.006
-0.79499605013766,0.467385847191952,0.007
-0.783633410136455,0.474986500063058,0.008
-0.77209745601477,0.481921512006061,0.009
-0.760389332878179,0.488171952031109,0.01
-0.748471923337507,0.493664909430229,0.011
-0.736335958453675,0.498263338039038,0.012
-0.72397231188718,0.501940052207206,0.013
-0.711382388454582,0.504642464062403,0.014
-0.69850751954153,0.506285952067474,0.015
-0.685319347478137,0.506840117878545,0.016
-0.671783322014107,0.506266630113505,0.017
-0.657891886898374,0.50453653890369,0.018
-0.643590648401263,0.501572226744235,0.019
-0.6288406901123,0.497391457651651,0.02
-0.613669582825146,0.491931618916736,0.021
-0.598041993954961,0.48523149668138,0.022
-0.581941756846765,0.4772282223322,0.023
-0.565382425734413,0.467925134885817,0.024
-0.548325776158624,0.457319573274125,0.025
-0.530777208929965,0.445400367040527,0.026
-0.51279120564341,0.432167614955327,0.027
-0.494338625674627,0.417724336249791,0.028
-0.475427319973984,0.401943436880686,0.029
-0.456169661069639,0.384858723234361,0.03
-0.436559500849103,0.366630925600633,0.031
-0.416610752915984,0.347145038352818,0.032
-0.396344580131647,0.326452391148082,0.033
-0.37587233647799,0.304596799111619,0.034
-0.355198628820535,0.281620707899792,0.035
-0.334326229261026,0.257576216469977,0.036
-0.31330086946732,0.232458498243462,0.037
-0.292141110685611,0.206279924477207,0.038
-0.270889627280751,0.179163186853903,0.039
-0.249580695316417,0.15106127347838,0.04
-0.22823029653287,0.122083590870378,0.041
-0.206870941162383,0.0923012926796903,0.042
-0.185502017429097,0.0617650110098299,0.043
-0.16413710420493,0.030532559156482,0.044
-0.14279302565107,-0.00132332818400251,0.045
-0.121501407070849,-0.033749721439089,0.046
-0.100242827877525,-0.066661275553981,0.047
-0.0790501167745045,-0.100050224741695,0.048
-0.0579492271164924,-0.133801492953552,0.049
-0.0369597580602409,-0.167837962050824,0.05
-0.0160874389639763,-0.202132492619635,0.051
0.00463867010836896,-0.236580556047324,0.052
0.0251892582430475,-0.271130806769916,0.053
0.0455673334508863,-0.305684859935075,0.054
0.0657549246388418,-0.340254661609991,0.055
0.0857196573136441,-0.374773537644522,0.056
0.105429606753175,-0.409174950249757,0.057
0.124885619936679,-0.443403711453196,0.058
0.144050889591595,-0.477437843917554,0.059
0.16290992672369,-0.511185907861224,0.06
0.181443376547749,-0.544581329580438,0.061
0.199595643513802,-0.577681155724154,0.062
0.217380279934034,-0.610380517967575,0.063
0.234788398147693,-0.642628746824847,0.064
0.251835839928472,-0.67445595107891,0.065
0.268514204334878,-0.705744458967417,0.066
0.28481195874982,-0.736457908155881,0.067
0.300757619443519,-0.766608232545579,0.068
0.31633354570719,-0.796146837567129,0.069
0.331576576026738,-0.825094852812926,0.07
0.346549067534167,-0.853485451189473,0.071
0.361234194051642,-0.88120297685282,0.072
0.375601771742085,-0.908337940330335,0.073
0.389778999109683,-0.93493928083794,0.074
0.403754237171534,-0.9608422744912,0.075
0.41748568962788,-0.986140196674862,0.076
0.431030511009001,-1.0108825059696,0.077
0.444413258823667,-1.03499694481726,0.078
0.457574793666213,-1.05852897841155,0.079
0.470535248551178,-1.08158606682885,0.08
0.483302021477228,-1.10408229541556,0.081
0.495842607085961,-1.12608736389131,0.082
0.508160215003052,-1.14762627094803,0.083
0.520242711899328,-1.16878323539104,0.084
0.532066475229138,-1.18949818987662,0.085
0.543653018261103,-1.20982183557648,0.086
0.554953401230169,-1.22979295275753,0.087
0.56603422301894,-1.24942823654813,0.088
0.576876618820178,-1.26874357913909,0.089
0.587479525096607,-1.28784014306975,0.09
0.597915400799667,-1.3066978206064,0.091
0.608193635797689,-1.32533197518428,0.092
0.618286317379637,-1.34382122187232,0.093
0.628320914515071,-1.36215309320113,0.094
0.638331999249079,-1.38030195759409,0.095
0.64827918006476,-1.39837520827466,0.096
0.658258636482201,-1.41639998084398,0.097
0.668326398073995,-1.43433561612521,0.098
0.678467465230963,-1.45225084937181,0.099
0.688655682223489,-1.47016903090496,0.1
0.698909748898841,-1.48803615621196,0.101
0.709306276891546,-1.50591536446778,0.102
0.719894044752975,-1.52382237063973,0.103
0.730638401787671,-1.54175781843385,0.104
0.741585381654347,-1.55979465900615,0.105
0.752824639732275,-1.57792705564105,0.106
0.764377971949333,-1.59617833262844,0.107
0.776281240686322,-1.61453920251276,0.108
0.78863845988534,-1.63306594592488,0.109
0.801455017169503,-1.65172055835007,0.11
0.814741560082772,-1.67057647738518,0.111
0.828554693255431,-1.6896613360077,0.112
0.842953802033222,-1.70891047704267,0.113
0.857936622052709,-1.72841482765949,0.114
0.873560298657281,-1.74814058591654,0.115
0.88984509411535,-1.76808506064798,0.116
0.906800708339565,-1.7882679263055,0.117
0.924503437514738,-1.808726866728,0.118
0.94296125851527,-1.8295044392248,0.119
0.962202104545069,-1.85060298192426,0.12
0.982246621046084,-1.8721067376234,0.121
1.00316669104057,-1.89395235803337,0.122
1.02498120864792,-1.91619721752171,0.123
1.04767236077557,-1.93886967323789,0.124
1.07127217328506,-1.96196014125466,0.125
1.09579847866269,-1.98548672294933,0.126
1.12125959512243,-2.00947126260478,0.127
1.14766494276738,-2.03393596527839,0.128
1.17499483856554,-2.05894646072979,0.129
1.20326211467293,-2.08442067975463,0.13
1.23250273440196,-2.11036641681378,0.131
1.2626919109253,-2.1368968963688,0.132
1.29380757112869,-2.16392327355211,0.133
1.32582876392146,-2.19142727190471,0.134
1.35877458881938,-2.21943551606645,0.135
1.39260437506604,-2.24791641859475,0.136
1.42726228186477,-2.27686332967585,0.137
1.46272177012709,-2.30621102033037,0.138
1.49891696206429,-2.33593873935085,0.139
1.53582925296321,-2.3660491540844,0.14
1.57340741740222,-2.39647459183979,0.141
1.61157094226793,-2.42723699312169,0.142
1.65032846866256,-2.4582370838703,0.143
1.68956210932261,-2.48945138334179,0.144
1.72917365346546,-2.52085736791258,0.145
1.76915429719233,-2.55236360493856,0.146
1.80940997883505,-2.58395488350744,0.147
1.84981316093483,-2.61561099789488,0.148
1.89033040041084,-2.64717340764899,0.149
1.93089500205158,-2.67865116469588,0.15
1.97136821116848,-2.70999459672153,0.151
2.01168293529931,-2.74107857728634,0.152
2.05181375717486,-2.77192368987713,0.153
2.09164820740379,-2.80243443496523,0.154
2.13110827817976,-2.83260906610937,0.155
2.1701189356822,-2.86230017563551,0.156
2.20860252859007,-2.89145171371695,0.157
2.24649388925558,-2.92005148173052,0.158
2.28368067365252,-2.94803820811606,0.159
2.32008863809703,-2.97528168826769,0.16
2.35563112196027,-3.00180806916845,0.161
2.39024431765927,-3.02758892777392,0.162
2.42387528971128,-3.05248762480362,0.163
2.45642886328667,-3.076581866072,0.164
2.48781491760545,-3.09969902154568,0.165
2.51793861147584,-3.12182759907374,0.166
2.54679609561124,-3.14299003430567,0.167
2.57428966082875,-3.16313594748469,0.168
2.60030452273729,-3.18222009727946,0.169
2.62485292188407,-3.2002686974148,0.17
2.64792002428091,-3.21720817450005,0.171
2.66936561662266,-3.23295119684,0.172
2.68918743148063,-3.24760167843144,0.173
2.70740701470425,-3.26108206897237,0.174
2.72397379115,-3.27336520208829,0.175
2.73885968161135,-3.28461868674258,0.176
2.75212051991989,-3.29478037702166,0.177
2.76376687425239,-3.30378063779775,0.178
2.77378947281088,-3.31177774169828,0.179
2.78226833468983,-3.31877284750909,0.18
2.78927326762853,-3.32469818454586,0.181
2.79485815965644,-3.32968198724873,0.182
2.79912394820855,-3.33378434402156,0.183
2.80214424275311,-3.33702180656556,0.184
2.8040072236915,-3.33939128349126,0.185
2.80480519911914,-3.34108518546106,0.186
2.80467107090274,-3.34210316760919,0.187
2.80376226396602,-3.34248775387994,0.188
2.80213274296199,-3.34237597837676,0.189
2.79988854941772,-3.34178896743919,0.19
2.79721638794233,-3.34075730992682,0.191
2.794224918016,-3.33945390177315,0.192
2.79105741147681,-3.33788701418203,0.193
2.78788086890849,-3.33605273606602,0.194
2.78475949587553,-3.33409520471316,0.195
2.78179129204786,-3.33213114155592,0.196
2.77920585411283,-3.33009178193164,0.197
2.77708334106768,-3.32808895837802,0.198
2.77553118392111,-3.32620207742921,0.199
2.77464534722032,-3.32444450473545,0.2
2.7746097751809,-3.32284022027676,0.201
2.77551817790349,-3.32145616449108,0.202
2.77741143515492,-3.32031162570276,0.203
2.78038355101885,-3.31944858195336,0.204
2.78457121279634,-3.31886643736191,0.205
2.79002013389468,-3.31856778177001,0.206
2.79678496766351,-3.31857449505853,0.207
2.80497101066135,-3.31883674420233,0.208
2.8146107137413,-3.31936922535653,0.209
2.82571683403074,-3.32020549140118,0.21
2.83839012781217,-3.32126073678498,0.211
2.8526622352738,-3.32250726493463,0.212
2.86853105288353,-3.32390743838371,0.213
2.88601838329256,-3.32541400272779,0.214
2.90512108333692,-3.32694989692761,0.215
2.92584304938447,-3.32851304132023,0.216
2.94820237176944,-3.33000799291834,0.217
2.97208216771678,-3.33139512603233,0.218
2.99738834263266,-3.33260648394764,0.219
3.024133033559,-3.33355916841815,0.22
3.05218660629665,-3.3341734701564,0.221
3.08145971141398,-3.33433083937084,0.222
3.11183268698271,-3.33403361435379,0.223
3.1432119268087,-3.33316876649087,0.224
3.17554347463109,-3.33162430584932,0.225
3.20868714374746,-3.32936342072608,0.226
3.24251389917205,-3.32634195861881,0.227
3.27695576243705,-3.32246032508277,0.228
3.31193719352517,-3.31763577287599,0.229
3.34732207213685,-3.31183024646216,0.23
3.38300062866387,-3.30496471425834,0.231
3.41882668516368,-3.29700738267117,0.232
3.45474298497938,-3.28795080964025,0.233
3.49059374452863,-3.27772941697744,0.234
3.52627735755556,-3.26636412306065,0.235
3.56168632919221,-3.25381193414778,0.236
3.59668751328282,-3.24009857995577,0.237
3.63117441833537,-3.2251778834093,0.238
3.66507071024434,-3.20908515927902,0.239
3.6982335213707,-3.19184887988734,0.24
3.73055588782676,-3.17337196600329,0.241
3.76193245363164,-3.15372599075842,0.242
3.7922500655071,-3.13295040840787,0.243
3.82140602723998,-3.11109219185771,0.244
3.84936219043452,-3.08817251423881,0.245
3.87607578423858,-3.06426800295467,0.246
3.90145139273898,-3.03949775633821,0.247
3.92550700549682,-3.01385182225141,0.248
3.94824370729696,-2.98735578414508,0.249
3.96965335478448,-2.9602474088448,0.25
3.98971384886222,-2.93254782139372,0.251
4.00852453168995,-2.90433019269617,0.252
4.02608689976375,-2.87580514280447,0.253
4.04234252619105,-2.8470147279271,0.254
4.05735081917669,-2.81813007004192,0.255
4.07113103720192,-2.78927669428767,0.256
4.08367692592564,-2.76059730357764,0.257
4.09504186208593,-2.73221959020418,0.258
4.10525431072412,-2.70422775281401,0.259
4.11436396805505,-2.67668559065715,0.26
4.12243441320735,-2.64978385404934,0.261
4.12956132656438,-2.62358813773293,0.262
4.1357430079625,-2.59812848910393,0.263
4.14104340584836,-2.57351515841154,0.264
4.14561765092188,-2.549827137126,0.265
4.14956157315196,-2.52722539897825,0.266
4.15293031237966,-2.50568206835288,0.267
4.15572671795837,-2.48532494035496,0.268
4.15814349237837,-2.46614062297871,0.269
4.16028554490079,-2.44814202419659,0.27
4.16213944141569,-2.43138997858449,0.271
4.16371981479617,-2.41588066087061,0.272
4.16513134554685,-2.40167386470972,0.273
4.16644011799979,-2.38870632110028,0.274
4.16761673142602,-2.37699711995725,0.275
4.16858999628106,-2.36649835528991,0.276
4.16942697757701,-2.35714876643089,0.277
4.17007074120476,-2.34901810517336,0.278
4.17051227736393,-2.34210612350858,0.279
4.170759089284,-2.33627964382997,0.28
4.17074145390334,-2.33152302948431,0.281
4.1703715574616,-2.32776257242916,0.282
4.16962069367896,-2.32495406236831,0.283
4.16842569547658,-2.32297918190095,0.284
4.166757537061,-2.32178179182973,0.285
4.16458464499726,-2.32133207452556,0.286
4.16191391632865,-2.32142680860764,0.287
4.1586013533121,-2.32197375107373,0.288
4.1545099412987,-2.322965513794,0.289
4.14962448581028,-2.32419743099296,0.29
4.14392308502575,-2.32559899897018,0.291
4.13720269196404,-2.3270573554575,0.292
4.12937961725769,-2.32833581274332,0.293
4.12038585128492,-2.32938790843234,0.294
4.11009046933393,-2.330138278426,0.295
4.09840296196852,-2.3304406717646,0.296
4.08527821330687,-2.33010926826774,0.297
4.07056460555488,-2.32910110536616,0.298
4.05420467390098,-2.32729089234274,0.299
4.03613957502465,-2.32450413295578,0.3
4.01638268503804,-2.32067644166722,0.301
3.99480020867827,-2.31577992755089,0.302
3.97138408831275,-2.30972246813526,0.303
3.94608947403783,-2.30240577395929,0.304
3.91892656243303,-2.29376220196659,0.305
3.88984676473617,-2.28371634361869,0.306
3.85884971952078,-2.27217424585201,0.307
3.82587010365635,-2.25911778907384,0.308
3.79080282442879,-2.2445281873522,0.309
3.75372002722507,-2.22832173803787,0.31
3.71463543930459,-2.21034974539547,0.311
3.67346949432614,-2.19074334923035,0.312
3.63026245381034,-2.16948576146545,0.313
3.58508445885675,-2.14652998781879,0.314
3.53799512657102,-2.12191227560698,0.315
3.48906175146558,-2.09566052274547,0.316
3.43833868155466,-2.06777127017078,0.317
3.3858417444525,-2.03834236621719,0.318
3.33184917086359,-2.0074113503519,0.319
3.27650212607361,-1.97494817761926,0.32
3.21984041375275,-1.94099778595744,0.321
3.16208240601544,-1.90565490861273,0.322
3.10336501201945,-1.86896074802825,0.323
3.04389603159412,-1.83090894883035,0.324
2.98381035545824,-1.79164964344654,0.325
2.92322581378786,-1.75126157715272,0.326
2.86232650758374,-1.70977662137204,0.327
2.80126954719188,-1.66720771744213,0.328
2.74012706927053,-1.62366194919689,0.329
2.67896170003328,-1.57923636456942,0.33
2.61793802231752,-1.53391884486999,0.331
2.55716171891989,-1.4878870785621,0.332
2.49676818955949,-1.44112930074134,0.333
2.43679221753551,-1.39360667825065,0.334
2.37742165316456,-1.34546679624817,0.335
2.31873084448957,-1.29663827230602,0.336
2.26085076720923,-1.24724051728883,0.337
2.20392154862671,-1.1973056123101,0.338
2.14804251079457,-1.14693854361874,0.339
2.09326956220514,-1.09618109549048,0.34
2.03977445260006,-1.04504041493432,0.341
1.98767251231677,-0.993777347373918,0.342
1.93704713440613,-0.942343490456624,0.343
1.88803139585149,-0.890753261031466,0.344
1.84063214080877,-0.839112940224808,0.345
1.79488228594967,-0.787497382165628,0.346
1.75080340829327,-0.735860551863729,0.347
1.70838356832768,-0.68424577439205,0.348
1.66751266348405,-0.632713741095718,0.349
1.62813326191643,-0.581348814078706,0.35
1.59013420248772,-0.530034031430955,0.351
1.55346525400741,-0.47878717276118,0.352
1.51795106996264,-0.427655112807054,0.353
1.48353403994765,-0.376507403219377,0.354
1.45016782096769,-0.325406127362957,0.355
1.41772988560213,-0.274298461738551,0.356
1.38622282589849,-0.2231464468913,0.357
1.35561255723771,-0.171987767721918,0.358
1.3258019478568,-0.120780948872969,0.359
1.29674368474678,-0.0695479758939355,0.36
1.26845896847357,-0.018357843412485,0.361
1.24084751407332,0.0327923238782382,0.362
1.21381996826632,0.0839036532161126,0.363
1.18741031772869,0.134869301382261,0.364
1.16158464084339,0.185645378259603,0.365
1.13612507353638,0.236255414320089,0.366
1.11099386677103,0.286624511043375,0.367
1.08620253899876,0.336612064511629,0.368
1.06169156828585,0.386277147953309,0.369
1.03732840474387,0.435415772119534,0.37
1.01305165877953,0.483950110571311,0.371
0.988861212196309,0.531908691480499,0.372
0.964754533241817,0.579108440985585,0.373
0.940697487603906,0.625513648969855,0.374
0.916603707490776,0.671090904244786,0.375
0.892538963297864,0.715764093100705,0.376
0.868613046477816,0.759417803393749,0.377
0.844750800831061,0.802086707366769,0.378
0.821017459206053,0.843817629568713,0.379
0.79737643648361,0.884536603392354,0.38
0.77379366330475,0.924217465466808,0.381
0.750329829547868,0.962873246491209,0.382
0.726992055318886,1.00040374735383,0.383
0.703726651411308,1.03688116927649,0.384
0.680483073158044,1.07226544411467,0.385
0.6572391069446,1.10654380833435,0.386
0.63388134386539,1.13976027357407,0.387
0.610275052023579,1.17188683872729,0.388
0.586418531972906,1.20286562228712,0.389
0.562347827190008,1.23279186358337,0.39
0.537960258183724,1.26159981129339,0.391
0.513173212439711,1.28927375208525,0.392
0.488081611310174,1.31583724449,0.393
0.462643819910861,1.34118470838413,0.394
0.436821915286727,1.36533183599783,0.395
0.410659206292378,1.38828225328512,0.396
0.384171647175928,1.41003046371398,0.397
0.357337243642356,1.43050709422304,0.398
0.330210915116803,1.44970600716387,0.399
0.302842383163099,1.46769370496689,0.4
0.27521861890857,1.48436185782046,0.401
0.247315374415385,1.49975650865534,0.402
0.21925548237353,1.51395541500471,0.403
0.191039350161489,1.52693340862982,0.404
0.162741827732551,1.53874893170239,0.405
0.134282199232668,1.54945300955144,0.406
0.105709149326197,1.5589981879141,0.407
0.077045910651386,1.56742320589347,0.408
0.0483548754716286,1.57479134009282,0.409
0.0197734150594099,1.58112216112615,0.41
-0.00875752676908303,1.58641571781575,0.411
-0.0372031624949516,1.59063440175208,0.412
-0.0654427612407717,1.59389189696718,0.413
-0.093486268202117,1.59628338150945,0.414
-0.121322130836907,1.59783566764254,0.415
-0.14899787668946,1.59851037447337,0.416
-0.176454512052854,1.59839626807796,0.417
-0.203655821469514,1.59757785922384,0.418
-0.230524036291177,1.59611530571882,0.419
-0.257173402179609,1.59405232022302,0.42
-0.283621912523981,1.5914079737485,0.421
-0.30979865889066,1.58820747326973,0.422
-0.33572443157834,1.58450673142292,0.423
-0.361345346437387,1.58035017967247,0.424
-0.386732381532902,1.57571237780716,0.425
-0.411829744282399,1.57068924154073,0.426
-0.43660236940588,1.56533034775437,0.427
-0.461014065754151,1.55961855191084,0.428
-0.485047552726944,1.55357978491469,0.429
-0.508618492550196,1.54722142807556,0.43
-0.53165318972213,1.54064145044967,0.431
-0.55408606269463,1.533809348817,0.432
-0.57586199340254,1.52678149828749,0.433
-0.596952923046869,1.51951626381622,0.434
-0.617315379577993,1.51198169650106,0.435
-0.636912871288806,1.50420402298577,0.436
-0.655711914738829,1.49602367155092,0.437
-0.673744113971763,1.48755055287173,0.438
-0.691012845711404,1.47877810825209,0.439
-0.707496048268608,1.46971183791199,0.44
-0.723157627499948,1.46033577878945,0.441
-0.738017324669064,1.45062134484864,0.442
-0.752143980133364,1.44066698246351,0.443
-0.765511809730016,1.43041034752507,0.444
-0.778170529517759,1.41983548799717,0.445
-0.790104880353132,1.40896409414253,0.446
-0.801289075986008,1.39782512044345,0.447
-0.811723028182181,1.38637481975286,0.448
-0.821402252921653,1.37460099628264,0.449
-0.830251324175632,1.36249898002714,0.45
-0.838252587429029,1.35011217696048,0.451
-0.845316424233564,1.33734171784386,0.452
-0.85144034291452,1.32416463834304,0.453
-0.856588253192413,1.31057857834569,0.454
-0.86074021178087,1.29652128771963,0.455
-0.863918944936368,1.28202876524775,0.456
-0.86606729223731,1.26707718023223,0.457
-0.867335749065062,1.25166061598186,0.458
-0.867725392936661,1.23579673201745,0.459
-0.867269022858658,1.21946707047994,0.46
-0.866002589776303,1.20271502191235,0.461
-0.86408166892792,1.18556591798751,0.462
-0.861525389343356,1.16804941435952,0.463
-0.858375071682932,1.15018959391756,0.464
-0.854749461854385,1.13204314071284,0.465
-0.850773103384406,1.1136268434091,0.466
-0.846378128338866,1.09498636759578,0.467
-0.841676501448016,1.07621594404392,0.468
-0.836800011424064,1.05732862073906,0.469
-0.831719880686654,1.03840096527338,0.47
-0.826519208968689,1.01956821942148,0.471
