Drag (N),Lift (N),Time (s)
-1.263,2.472,0
-1.25358792496179,2.4719087781092,0.001
-1.24419478967457,2.47182796028116,0.002
-1.23482644192294,2.47174718730367,0.003
-1.22548487424673,2.4716693508308,0.004
-1.21618512467989,2.47160443261912,0.005
-1.20693825495108,2.47154941492198,0.006
-1.1977469000553,2.47150601416826,0.007
-1.18861129979868,2.47147697485649,0.008
-1.17954265884716,2.47146472502236,0.009
-1.17055350700389,2.47146310368832,0.01
-1.16165112329231,2.47147296749048,0.011
-1.15283531685445,2.47150671681768,0.012
-1.14411479451326,2.471557411936,0.013
-1.13548855811722,2.47162138069316,0.014
-1.12697391570189,2.47170189696932,0.015
-1.11857776778917,2.47179325958617,0.016
-1.11029792710218,2.47188539903164,0.017
-1.1021376544523,2.47200046128925,0.018
-1.09410224550858,2.47213794677362,0.019
-1.08619619314361,2.47227583312748,0.02
-1.07842322613639,2.47243011303237,0.021
-1.07078701933371,2.47260629843208,0.022
-1.0632907961116,2.47279140288551,0.023
-1.0559287369098,2.47298361654847,0.024
-1.0487042546994,2.47319861583292,0.025
-1.04162260363847,2.47342792563489,0.026
-1.03467862240981,2.4736688796785,0.027
-1.02787433623259,2.4739201750031,0.028
-1.02121201185829,2.47417344064018,0.029
-1.01468570165419,2.47443017471734,0.03
-1.00828537472958,2.47470068409192,0.031
-1.00200695118534,2.47498031354078,0.032
-0.995849558070703,2.47526338599107,0.033
-0.9898057896922,2.4755432422855,0.034
-0.983873858149381,2.47583097553586,0.035
-0.978042929499519,2.47611719838604,0.036
-0.972308456414679,2.47640541727204,0.037
-0.966665768057182,2.4766946747619,0.038
-0.961112245710379,2.47696990025369,0.039
-0.955638710563863,2.47723261167077,0.04
-0.950243472852744,2.47749166578225,0.041
-0.944917219763322,2.47773202255368,0.042
-0.939646942718437,2.47796662622623,0.043
-0.934433215366768,2.4781955576486,0.044
-0.929271289403395,2.47840749695593,0.045
-0.924154711188019,2.47860581795544,0.046
-0.919078102545769,2.47880582768686,0.047
-0.914038219455982,2.47899746988142,0.048
-0.909029632833383,2.47917947364734,0.049
-0.904059590509831,2.47936062814886,0.05
-0.899123618975529,2.47953461534335,0.051
-0.894217860782759,2.47969991711672,0.052
-0.889344422481723,2.47986759771509,0.053
-0.884493980880662,2.48003070488162,0.054
-0.879660411230466,2.48018696501586,0.055
-0.874845376070439,2.48034412594868,0.056
-0.870050659251688,2.48049913994242,0.057
-0.86527315267882,2.48064948791387,0.058
-0.860509294525464,2.48080387850708,0.059
-0.855757410472808,2.48096349243647,0.06
-0.851025073934702,2.48111855508363,0.061
-0.846314447197585,2.48127447540152,0.062
-0.84162346140849,2.48142728128437,0.063
-0.836955489829749,2.48157563921934,0.064
-0.832312090449091,2.48173223974969,0.065
-0.82769400096132,2.48190309143164,0.066
-0.82309639830659,2.48208096807184,0.067
-0.818533602274589,2.48227042401193,0.068
-0.814004357370222,2.48247020885871,0.069
-0.809517850895214,2.48269020308617,0.07
-0.805065513887701,2.4829314438787,0.071
-0.800657837209257,2.48320700317627,0.072
-0.796300045011154,2.48350655578285,0.073
-0.791995408359291,2.48382575128059,0.074
-0.787746988539383,2.48417026181135,0.075
-0.783556928158229,2.48455006886852,0.076
-0.779425460424126,2.48496692596761,0.077
-0.775347350435367,2.48542742610115,0.078
-0.771321472828734,2.48592619760841,0.079
-0.76735453732687,2.48646039464269,0.08
-0.763447214468569,2.48703416629377,0.081
-0.759594207724518,2.48764715030895,0.082
-0.755791435359839,2.48829506105011,0.083
-0.752037216696027,2.48898118205383,0.084
-0.74832731475916,2.48971490483967,0.085
-0.744661763762137,2.49047520965303,0.086
-0.741044104091944,2.49126121269082,0.087
-0.737470781590401,2.49208172283189,0.088
-0.733930773638774,2.4929303472222,0.089
-0.730426980208786,2.49380644414149,0.09
-0.726955080029153,2.49472061859442,0.091
-0.723516096399932,2.49565931816817,0.092
-0.720104935536011,2.49662089061422,0.093
-0.716717258459649,2.49761566779221,0.094
-0.713344307927666,2.4986420472,0.095
-0.709983339855841,2.49969632495471,0.096
-0.706638379528383,2.50077299912121,0.097
-0.703303424518756,2.50187288928519,0.098
-0.699973219606637,2.50299009171273,0.099
-0.696637461275604,2.50411471245389,0.1
-0.693298911403991,2.50525508778859,0.101
-0.689948212108738,2.50639993919854,0.102
-0.686573050119674,2.50754367287224,0.103
-0.683169569238334,2.50868664065444,0.104
-0.679739120652221,2.50982514476073,0.105
-0.676273338720802,2.51095100780274,0.106
-0.672766630127286,2.51205684731645,0.107
-0.66921454470346,2.51314325162108,0.108
-0.66561177638914,2.5141967987622,0.109
-0.661960996753022,2.51522374257314,0.11
-0.658255029624752,2.51621810903039,0.111
-0.654489143045392,2.5171720209868,0.112
-0.650658588309679,2.51807915673507,0.113
-0.646760935275952,2.5189445212938,0.114
-0.642795853759323,2.51975800216706,0.115
-0.638755648487611,2.52051472640638,0.116
-0.634632176264501,2.52121554976185,0.117
-0.630426032396188,2.52186917455176,0.118
-0.626141815726387,2.52246236420287,0.119
-0.621772770352949,2.52298327674482,0.12
-0.617315336931691,2.52345562978563,0.121
-0.612766469857362,2.52386249119715,0.122
-0.608124597519458,2.5241891431906,0.123
-0.603384430001576,2.52444516054056,0.124
-0.598549960514945,2.52463662929217,0.125
-0.593615168035787,2.52474897372783,0.126
-0.588578131181895,2.52478538785419,0.127
-0.583438165471134,2.52473848106802,0.128
-0.578191343148906,2.52460500270113,0.129
-0.572833643125887,2.52438896442506,0.13
-0.567357488097193,2.52408802439658,0.131
-0.561765964687754,2.52369171593415,0.132
-0.556060859414035,2.52319902635681,0.133
-0.550243419014626,2.52260964643163,0.134
-0.544305689718596,2.52192428702693,0.135
-0.538246868564118,2.52113297166545,0.136
-0.532073958330606,2.52023208234685,0.137
-0.525783621589612,2.51921845962908,0.138
-0.519373147961128,2.51809247958166,0.139
-0.512845825367414,2.51686215460163,0.14
-0.506206663214848,2.51552836436734,0.141
-0.499447005066977,2.51408127196837,0.142
-0.492570133389675,2.51252844598405,0.143
-0.48558453721204,2.51086783054406,0.144
-0.478486811296543,2.50909602992815,0.145
-0.471275392747845,2.50722245989863,0.146
-0.463956435468851,2.50525239457764,0.147
-0.456536659933345,2.50317006783483,0.148
-0.449019369570803,2.50099098701927,0.149
-0.441408374377844,2.49871437825143,0.15
-0.433702462871244,2.49633470300097,0.151
-0.425904080690447,2.49385777506836,0.152
-0.418020331313936,2.49129647574675,0.153
-0.410051476569243,2.48864524129878,0.154
-0.402007635086928,2.48590804514693,0.155
-0.393899777132614,2.48309151006222,0.156
-0.385726884286614,2.48020122542444,0.157
-0.377494620420323,2.47724212773695,0.158
-0.369215069694465,2.47421599671192,0.159
-0.360900679454313,2.47112563069668,0.16
-0.352558696053162,2.46797743306322,0.161
-0.344194626688238,2.46478277098308,0.162
-0.335817039249999,2.46154836059582,0.163
-0.327440436620929,2.45828814242753,0.164
-0.319069804735843,2.45500175540994,0.165
-0.310714852682945,2.45169938141653,0.166
-0.302382939030222,2.44838405837867,0.167
-0.294092094778631,2.44507308294334,0.168
-0.285844338191951,2.44177039968762,0.169
-0.277653456527248,2.43848561096729,0.17
-0.269520541085654,2.43522165906358,0.171
-0.26146579094867,2.43198722042608,0.172
-0.253490030719401,2.42877799124611,0.173
-0.245605743582119,2.42561029061555,0.174
-0.237824998045814,2.42249605008334,0.175
-0.230154925712591,2.41944411398552,0.176
-0.222601835598494,2.41645008073074,0.177
-0.21517517097729,2.4135220299673,0.178
-0.207887995515572,2.41066119066385,0.179
-0.200746120808892,2.40787508999671,0.18
-0.193751212257534,2.40517445369992,0.181
-0.186908467600638,2.40257075627922,0.182
-0.180223400112381,2.40007284691527,0.183
-0.17370529585714,2.39767929957734,0.184
-0.167360577774118,2.39540194148061,0.185
-0.161197002231803,2.39323947529803,0.186
-0.155215396517074,2.39120374014754,0.187
-0.149416396550302,2.38930013863172,0.188
-0.143800997536498,2.38753913587622,0.189
-0.13837082010994,2.38592862330968,0.19
-0.133122683175679,2.3844721131328,0.191
-0.128056481232592,2.38316410634797,0.192
-0.123170995501643,2.3820144076002,0.193
-0.118463284097933,2.38101855943324,0.194
-0.113924523537506,2.38016687295451,0.195
-0.109549487702094,2.37945914759884,0.196
-0.105331829878555,2.37889872028405,0.197
-0.101256281146537,2.37847830656553,0.198
-0.0973184482822767,2.37819731631471,0.199
-0.0935021437302521,2.37804401537912,0.2
-0.0898091511493176,2.37802159221331,0.201
-0.0862234766827473,2.37812623931862,0.202
-0.0827284104712308,2.37834940115438,0.203
-0.0793179921230938,2.37867924987172,0.204
-0.075975903634369,2.37911167908047,0.205
-0.0726910372775019,2.37963709830094,0.206
-0.0694478050507074,2.38024598941337,0.207
-0.0662262772557376,2.38093388043026,0.208
-0.0630093170859344,2.3816902809756,0.209
-0.0597921649231482,2.38252257290404,0.21
-0.0565453793291909,2.38340342461141,0.211
-0.0532477089604845,2.38433079870806,0.212
-0.049878321442153,2.38531085344103,0.213
-0.0464250233561672,2.38632436846,0.214
-0.0428606673151853,2.3873495965169,0.215
-0.0391680258777949,2.38839638566998,0.216
-0.0353263752307894,2.38946461129532,0.217
-0.0313229646993553,2.39053132855282,0.218
-0.0271418643876709,2.39158134990723,0.219
-0.0227589759537643,2.39260820262993,0.22
-0.0181637309457617,2.39360896569137,0.221
-0.0133411406257628,2.39455359735618,0.222
-0.00827534577520087,2.39544114451369,0.223
-0.00295372643470542,2.39627241267564,0.224
0.00262978536929513,2.39703226546363,0.225
0.00848747022112472,2.39769756292628,0.226
0.014632285988229,2.39826370850473,0.227
0.0210726467283717,2.39871916781799,0.228
0.0278162111923974,2.39905620495185,0.229
0.0348763598261409,2.39926609845359,0.23
0.0422612856980652,2.39933938454106,0.231
0.0499626980263504,2.39926524697594,0.232
0.0579853784681377,2.39904004896222,0.233
0.0663496193686871,2.39864978027856,0.234
0.0750607963538057,2.39809279252068,0.235
0.0841007713757035,2.39736262977248,0.236
0.0934735209967659,2.39645771412659,0.237
0.103186257752694,2.39538877792762,0.238
0.113230442418011,2.39415329323861,0.239
0.123587305214515,2.39275211751883,0.24
0.134257794943148,2.3911832935408,0.241
0.145226385375169,2.38944599992982,0.242
0.156465537234027,2.3875536072667,0.243
0.167951687832082,2.38551417023882,0.244
0.17967550369259,2.38331957753093,0.245
0.191609578959381,2.38098865124804,0.246
0.203720737277055,2.37852684204442,0.247
0.215983779750685,2.3759338624686,0.248
0.22837481849423,2.37322910281168,0.249
0.240874465893089,2.37040922164539,0.25
0.253456660959907,2.36748678060197,0.251
0.266089014628323,2.36448597484482,0.252
0.278739725175472,2.36141354976901,0.253
0.291387876334561,2.35826460112802,0.254
0.304005507649181,2.3550555715361,0.255
0.316566382550531,2.35179736229132,0.256
0.329045714709365,2.34849463603692,0.257
0.341409108558844,2.34515633196509,0.258
0.353636313113845,2.34178066241512,0.259
0.365703878305079,2.33838604810612,0.26
0.377590999332274,2.33497766575073,0.261
0.389279953149032,2.33155566347646,0.262
0.400753969237914,2.32812424304005,0.263
0.41199228823788,2.32469204885861,0.264
0.422985395715145,2.32125244279724,0.265
0.433722444565028,2.3178281604421,0.266
0.444198171699986,2.31441239145259,0.267
0.454397549370404,2.31101497202465,0.268
0.464320711757452,2.30763438453479,0.269
0.473967302181016,2.30428049623103,0.27
0.483334565643005,2.3009525606241,0.271
0.492419642023876,2.29765655520508,0.272
0.501227013392033,2.29439809531264,0.273
0.509751486698919,2.29118527009526,0.274
0.51799301435536,2.28802291224475,0.275
0.525958164005943,2.28491143861741,0.276
0.533657052130547,2.28184679581889,0.277
0.541091486891889,2.278835626468,0.278
0.548260184256827,2.27588338109857,0.279
0.555180604269716,2.27299034654473,0.28
0.561855206320316,2.27015966467209,0.281
0.568284811671651,2.26738492801904,0.282
0.574477413658024,2.26465735465835,0.283
0.580432429217006,2.26197190684204,0.284
0.586165229162254,2.25932432782261,0.285
0.591687780635801,2.25670608495554,0.286
0.597002315128356,2.25411933114534,0.287
0.602120850467609,2.25155500307019,0.288
0.607056139037238,2.2490103619756,0.289
0.611817772596921,2.24647095281364,0.29
0.61641588001715,2.24392676562587,0.291
0.620860911469497,2.24137287907264,0.292
0.625164793727659,2.23880495376959,0.293
0.629340827880505,2.23621216470271,0.294
0.633398985118359,2.23360427891217,0.295
0.637345883703815,2.23098164980167,0.296
0.6411891387167,2.22834259475118,0.297
0.644929003420041,2.22568161617028,0.298
0.648562406762531,2.22300766877209,0.299
0.652104766900721,2.22031290019282,0.3
0.655554918809365,2.21761357099123,0.301
0.658917770945383,2.21490656421285,0.302
0.662196525012644,2.21218643564983,0.303
0.6653856902889,2.20946936894533,0.304
0.668488246078787,2.20676064593775,0.305
0.671505918327745,2.20405739583833,0.306
0.674444573175407,2.2013684939457,0.307
0.677309854125735,2.19869565863709,0.308
0.680098751250902,2.19604803268171,0.309
0.682800316676986,2.19342726348436,0.31
0.685424008842671,2.19082578279207,0.311
0.687972048593528,2.18825537078203,0.312
0.690433254834539,2.18570935388342,0.313
0.692795108674655,2.18317133057746,0.314
0.695061264899941,2.18065656862158,0.315
0.697212569080747,2.17816700360695,0.316
0.699251510674082,2.17569599820171,0.317
0.70116768278326,2.17323451696108,0.318
0.702950095803319,2.17078544491205,0.319
0.704605531533344,2.16836252765283,0.32
0.706133998379534,2.16596825019608,0.321
0.707533230639664,2.16360270328007,0.322
0.708811635280276,2.16128145016637,0.323
0.709960960266956,2.15901059204452,0.324
0.710984058003562,2.15679022419075,0.325
0.711894384720103,2.1546272365486,0.326
0.71269983182573,2.15253119184425,0.327
0.713396106276108,2.15050606848014,0.328
0.713990327897286,2.14855978485725,0.329
0.714482353446976,2.14670024170396,0.33
0.714871590029369,2.14493792355746,0.331
0.715157838123883,2.14327011928886,0.332
0.715356962661776,2.14170872435008,0.333
0.715467517301548,2.14025926679589,0.334
0.715472989886065,2.13893352799312,0.335
0.715373855373014,2.13773126936187,0.336
0.715182964272225,2.13666513188042,0.337
0.714896615714557,2.13572581217892,0.338
0.714504977122818,2.13490844786845,0.339
0.714010172225482,2.13421982039168,0.34
0.713425526277483,2.13365086813114,0.341
0.712749823110894,2.13320145678879,0.342
0.711994203984854,2.1328735971904,0.343
0.711165647813606,2.13264856846763,0.344
0.710285901137681,2.13252408708307,0.345
0.709355353509677,2.13250978709666,0.346
0.708395381277303,2.13259487646952,0.347
0.707421153517422,2.13277843059361,0.348
0.706449639099267,2.13305407961509,0.349
0.705505273291305,2.13342279819004,0.35
0.704594037774682,2.13387664966015,0.351
0.703714936007853,2.13441902578459,0.352
0.702892115380658,2.13503890899064,0.353
0.702138202206586,2.13573164756129,0.354
0.701464801829642,2.13650321934357,0.355
0.70087255630409,2.13734854431559,0.356
0.700370906292569,2.13825998255867,0.357
0.699968359794672,2.13924668561455,0.358
0.699685652215026,2.14030271593536,0.359
0.699522585709464,2.14143580706307,0.36
0.69948361161191,2.14263530442607,0.361
0.699581562954109,2.14389600352092,0.362
0.699820453223744,2.14522571868955,0.363
0.700202390382579,2.14662319398323,0.364
0.700732418507466,2.14807775566745,0.365
0.701413649195324,2.1496014476952,0.366
0.702233630939312,2.15117655785308,0.367
0.703183808500761,2.15280604770799,0.368
0.704267479590687,2.15448312037634,0.369
0.705465993822977,2.15620593140035,0.37
0.70676093055193,2.157970784059,0.371
0.70814443551472,2.15978121651974,0.372
0.709598909003879,2.1616309508162,0.373
0.711107277460944,2.16352175205299,0.374
0.712657215043405,2.1654461233303,0.375
0.714244734319117,2.16739584178532,0.376
0.715854708014703,2.16937792666019,0.377
0.717466220146407,2.17139765536022,0.378
0.719067763474951,2.17345784802128,0.379
0.720653858460084,2.17555649874415,0.38
0.72218875993522,2.17770240582109,0.381
0.723669907466158,2.17988818296579,0.382
0.725083069886046,2.18212427647288,0.383
0.726411053501589,2.18441571633704,0.384
0.727646055445424,2.18676548464926,0.385
0.728765823293631,2.18918839444342,0.386
0.729748709553945,2.1916872881477,0.387
0.730588870172589,2.19425641432719,0.388
0.73127269098103,2.19691102661632,0.389
0.731776589708899,2.19965437140277,0.39
0.73208658991685,2.20248195853805,0.391
0.732188908847909,2.20540468096535,0.392
0.73206204400143,2.20843036898223,0.393
0.731700497622558,2.2115579828056,0.394
0.731087747739263,2.21479506333576,0.395
0.730205455545812,2.2181376579434,0.396
0.729048092575895,2.22158724130315,0.397
0.727606649945693,2.22513910090967,0.398
0.725883091826314,2.22879255793676,0.399
0.723877154748791,2.23254022746668,0.4
0.721578838168099,2.23639487845819,0.401
0.718986712077464,2.24033509867459,0.402
0.716108365496996,2.24436501723921,0.403
0.71294160425681,2.24848380848177,0.404
0.709499743272832,2.25267985632844,0.405
0.705796868806295,2.2569582024853,0.406
0.70183082587326,2.26132040811586,0.407
0.697609254674513,2.26575966645019,0.408
0.693132120428507,2.27027264690977,0.409
0.688406990498452,2.27485419392226,0.41
0.683459992346633,2.2795007789522,0.411
0.678295618818036,2.28421726033466,0.412
0.672910497530962,2.28899250192634,0.413
0.667321008187922,2.29383927629433,0.414
0.661553569765549,2.29876536745683,0.415
0.655612303392102,2.30375007355901,0.416
0.649523058587135,2.30881045113131,0.417
0.643294441847214,2.31393599000999,0.418
0.636947887958015,2.31913184253139,0.419
0.630516251017408,2.32440793968079,0.42
0.623997274629289,2.32975758530465,0.421
0.617400104467628,2.33516140158118,0.422
0.610740200864868,2.34062301644307,0.423
0.604021396153852,2.34612406474118,0.424
0.597267664631028,2.35165545748059,0.425
0.590491009556683,2.35721390567736,0.426
0.583688574609256,2.3627893346769,0.427
0.576866154027089,2.36837908334737,0.428
0.57002891925564,2.37397527302185,0.429
0.563185642053394,2.37956718473363,0.43
0.55634977771541,2.38515571138159,0.431
0.549519048169448,2.39072103603659,0.432
0.542707201416207,2.39627526011106,0.433
0.535908822465226,2.40180656111811,0.434
0.529133602645117,2.40731117857828,0.435
0.522394438999643,2.41278567479833,0.436
0.515694938282201,2.41823153469808,0.437
0.509036753262102,2.42363121542198,0.438
0.502425500867797,2.42900705997134,0.439
0.495879628167187,2.43435420739721,0.44
0.489390673831719,2.43967409184823,0.441
0.482952887932894,2.44497551940918,0.442
0.476562065678779,2.45026202365463,0.443
0.470220338193009,2.45552973119215,0.444
0.463929298557945,2.46080128089233,0.445
0.45767339754804,2.46607290355373,0.446
0.451447398081263,2.47134535754109,0.447
0.445240391041741,2.4766203451762,0.448
0.439046520026621,2.48188875934471,0.449
0.432859500434729,2.4871650882711,0.45
0.426653902955718,2.49243643284038,0.451
0.420424287612171,2.49770464790128,0.452
0.414178260228775,2.50296263878592,0.453
0.407901303321891,2.50819837212953,0.454
0.401598736554283,2.51341105850824,0.455
0.395250757614184,2.5185893583549,0.456
0.388866758981776,2.52372734871413,0.457
0.382455053945175,2.528828899449,0.458
0.376016110918277,2.53386980680802,0.459
0.369532491021961,2.53884899553161,0.46
0.363002412022805,2.54375660836897,0.461
0.356444313206185,2.54858868957305,0.462
0.349853202982249,2.55335079742122,0.463
0.343214153184682,2.55803595984228,0.464
0.336520530514686,2.56264143507788,0.465
0.329779891420199,2.56718472746893,0.466
0.322992538290926,2.57164898878943,0.467
0.316161960097331,2.57605173362246,0.468
0.309288941663369,2.58039526213727,0.469
0.302360063629407,2.58467527845875,0.47
0.295396566635345,2.58889790152587,0.471
0.288408580366131,2.59306616931414,0.472
0.2813999826919,2.59717416261314,0.473
