Drag (N),Lift (N),Time (s)
-5.127,4.845,0
-5.07175170583825,4.84176243674782,0.001
-5.01660427262096,4.83851206040479,0.002
-4.96167783692167,4.83523234885373,0.003
-4.90708570186483,4.83194434095821,0.004
-4.85292130764094,4.82867111083134,0.005
-4.79930445396015,4.82544208394579,0.006
-4.74634710551052,4.82227912944696,0.007
-4.69416486921152,4.81917154761145,0.008
-4.64285761861047,4.8161532091722,0.009
-4.59252661040408,4.81322808749745,0.01
-4.54329659991907,4.81040606277219,0.011
-4.49524338437127,4.80767968790767,0.012
-4.44845236934804,4.80505659630976,0.013
-4.40299593710167,4.8025712363181,0.014
-4.35893587828823,4.80022536585696,0.015
-4.316347602823,4.79799368750228,0.016
-4.27525034942038,4.79590623955234,0.017
-4.23569986059645,4.7939614035797,0.018
-4.19775482206876,4.79214959583772,0.019
-4.1614573296694,4.79044130519329,0.02
-4.12685151676148,4.78880654324961,0.021
-4.09393315350887,4.78725717600361,0.022
-4.06273033628744,4.78574724359365,0.023
-4.03325261581585,4.78428057114525,0.024
-4.00551706530895,4.78283808243738,0.025
-3.97950775450824,4.78141341029024,0.026
-3.95521924788003,4.77998897437668,0.027
-3.93265372449918,4.7785461700254,0.028
-3.91179298212451,4.77709394835997,0.029
-3.89260429041458,4.77558799626006,0.03
-3.87507314277209,4.77403091694937,0.031
-3.85915279322566,4.77243953471258,0.032
-3.84479809250713,4.77077006172174,0.033
-3.83197999085573,4.76904389922887,0.034
-3.82066722644277,4.76723542103582,0.035
-3.81080349636661,4.76534809308889,0.036
-3.80233532619378,4.76335205911573,0.037
-3.79521845944901,4.76126046760016,0.038
-3.78939425069295,4.75907513377725,0.039
-3.78481129641212,4.75678357704261,0.04
-3.78141622034686,4.75437795787225,0.041
-3.77916014540745,4.75186056458585,0.042
-3.77797633451929,4.74924391773059,0.043
-3.77783743664505,4.7465042524986,0.044
-3.77869062771105,4.74364315749305,0.045
-3.78046561072519,4.74064390044262,0.046
-3.78310016058782,4.73748676408567,0.047
-3.78653031298546,4.73420011246417,0.048
-3.79068653531045,4.73073708116411,0.049
-3.79549226300899,4.72708218916016,0.05
-3.80089273176712,4.72326205229348,0.051
-3.80682167720664,4.71925167782181,0.052
-3.81319331677541,4.71502990842819,0.053
-3.81995455797802,4.71060965604268,0.054
-3.82704682474839,4.70599423158104,0.055
-3.83439979940697,4.70117889343927,0.056
-3.84194517898025,4.69614880688192,0.057
-3.84964093206018,4.69090731413794,0.058
-3.85742839170871,4.68545289510999,0.059
-3.86524226263789,4.67978786680995,0.06
-3.87303476247424,4.67390295816957,0.061
-3.88074651283161,4.66780005491319,0.062
-3.88834796892708,4.66146814780141,0.063
-3.89578499175779,4.65490331684578,0.064
-3.90302060118015,4.64810321492549,0.065
-3.91000729781029,4.64104659720326,0.066
-3.91672537931244,4.63374184147261,0.067
-3.92313303711967,4.6261835312916,0.068
-3.92919253919199,4.61837845351329,0.069
-3.93485856760496,4.61030631453559,0.07
-3.94010836393257,4.60196638234492,0.071
-3.94492852376109,4.59334312283779,0.072
-3.94928448467578,4.58442143655477,0.073
-3.9531622306378,4.57521664427724,0.074
-3.95651963035352,4.56571085199325,0.075
-3.95935735968088,4.55590425194305,0.076
-3.96164887741445,4.54579381347222,0.077
-3.96339556710194,4.53537792662751,0.078
-3.96457980040349,4.52465675404566,0.079
-3.96520484377294,4.51361692008868,0.08
-3.96524872608093,4.50228801744366,0.081
-3.96473776486312,4.49064115020195,0.082
-3.96368207959789,4.47868150486886,0.083
-3.96206558296893,4.46642286689575,0.084
-3.95988347307336,4.45389221805885,0.085
-3.95712931287306,4.44106968491666,0.086
-3.95383214345798,4.42794964987418,0.087
-3.94999002572302,4.41452917813764,0.088
-3.94560263601437,4.40079762321578,0.089
-3.94067339660761,4.3867547619,0.09
-3.93521784011803,4.37235284712528,0.091
-3.92924511903909,4.35760519654268,0.092
-3.92272370470585,4.34249838465718,0.093
-3.91566578557178,4.32701931183346,0.094
-3.90807108748613,4.31113363698073,0.095
-3.89993713349614,4.29484869098604,0.096
-3.89126647863132,4.27815093684453,0.097
-3.88205676181448,4.26100240958175,0.098
-3.87231337118939,4.24339345035108,0.099
-3.86205149916483,4.22529062073285,0.1
-3.85128008830446,4.20669225708029,0.101
-3.83998375692177,4.1876058208656,0.102
-3.82819111501997,4.16803269960702,0.103
-3.81590992104806,4.14797261907475,0.104
-3.80314102968253,4.12742972501601,0.105
-3.78989573546052,4.10637615314655,0.106
-3.77616924834023,4.08479787850556,0.107
-3.76196779680616,4.06267191365115,0.108
-3.74727927927214,4.04001185328917,0.109
-3.7321155555962,4.01679682163539,0.11
-3.71646456977419,3.99304099228648,0.111
-3.70032645418367,3.96874018641969,0.112
-3.68371336323895,3.94388783296182,0.113
-3.66661860078712,3.91851012340712,0.114
-3.64905852032803,3.89258332292529,0.115
-3.63105207799764,3.86611024863729,0.116
-3.61259975539518,3.83912076901341,0.117
-3.59375010708261,3.81160924317781,0.118
-3.57452211985688,3.78357376255576,0.119
-3.55492149539489,3.75503386090745,0.12
-3.53497916232646,3.72601005045533,0.121
-3.51471545217995,3.69653016184473,0.122
-3.49416329468281,3.66661968960812,0.123
-3.47334056391733,3.63631665182754,0.124
-3.45226822131263,3.60564544110498,0.125
-3.4309732208437,3.57463997469837,0.126
-3.40947479791982,3.54332373457962,0.127
-3.38780764655635,3.51172547209512,0.128
-3.36598595905938,3.47987301630826,0.129
-3.34403277288403,3.44778508652327,0.13
-3.32198107594757,3.41550743976891,0.131
-3.29984821389559,3.3830728919056,0.132
-3.27767455917068,3.3504981042749,0.133
-3.25550900775243,3.31782673126504,0.134
-3.2333811043264,3.28509193739342,0.135
-3.21131789738783,3.25233018867485,0.136
-3.18937111062688,3.21956083323816,0.137
-3.16758264818866,3.18685459931342,0.138
-3.14598484072591,3.15421600295172,0.139
-3.12460778346838,3.12167237496363,0.14
-3.10349931274876,3.0892581321135,0.141
-3.08268722614541,3.0570005732212,0.142
-3.0621884375259,3.02492111047541,0.143
-3.04204085165835,2.99303302861107,0.144
-3.02223796643345,2.96137547037982,0.145
-3.00278704549553,2.92996586622573,0.146
-2.98370663875086,2.89882773086569,0.147
-2.96501763640163,2.86799453529484,0.148
-2.94671385595451,2.8374525676258,0.149
-2.92880513047885,2.80725286308827,0.15
-2.91130437823927,2.77742619945931,0.151
-2.89421688437246,2.74794856880237,0.152
-2.87753348728707,2.71886879013719,0.153
-2.86127327334795,2.69019256251589,0.154
-2.84542992934909,2.66190824231521,0.155
-2.83000387428793,2.63405217462692,0.156
-2.81501785140431,2.60660044883271,0.157
-2.80047290242351,2.57957527960468,0.158
-2.78634512036816,2.55299581840318,0.159
-2.77264500703612,2.52684150867141,0.16
-2.75936535654935,2.50110164128239,0.161
-2.74648018044611,2.47578772881067,0.162
-2.73399364814459,2.45086164860798,0.163
-2.72187505865163,2.4263272716181,0.164
-2.71009446485514,2.40219331066404,0.165
-2.69864779068297,2.37842720490881,0.166
-2.6875135751865,2.3550267631254,0.167
-2.67664243711923,2.33197656889849,0.168
-2.66601367118869,2.30922608399116,0.169
-2.65560199813833,2.28677338859517,0.17
-2.64537640306555,2.2645883243023,0.171
-2.63530365721375,2.24266724580342,0.172
-2.62535309770647,2.22097954630562,0.173
-2.61549826763492,2.19951111013599,0.174
-2.60569643769861,2.17823205992787,0.175
-2.59595106639124,2.15712388390497,0.176
-2.58620768418473,2.13615407901934,0.177
-2.57644357194911,2.11530997419109,0.178
-2.56662926810997,2.0945641336626,0.179
-2.5567462258422,2.07390190450944,0.18
-2.54674434563466,2.05328515588543,0.181
-2.53661495896303,2.03268453669739,0.182
-2.52632146589885,2.01207749917664,0.183
-2.51581478755302,1.99145155441341,0.184
-2.50507903232017,1.97077758049671,0.185
-2.49407732684223,1.95001120951672,0.186
-2.48278732131106,1.92914994989524,0.187
-2.4711842592187,1.90815538860839,0.188
-2.4592375017277,1.8870127431954,0.189
-2.44692919511585,1.86570235728134,0.19
-2.43424498655406,1.84418538373687,0.191
-2.42113902876085,1.82248999423965,0.192
-2.40760164228606,1.80059415712216,0.193
-2.39363440987658,1.77847315513314,0.194
-2.37921212247007,1.75612657538813,0.195
-2.36432506543582,1.73356091218987,0.196
-2.34897850054195,1.71074360215757,0.197
-2.33314253811912,1.68767961653595,0.198
-2.3168141912469,1.66438252336201,0.199
-2.2999998983988,1.64082793231725,0.2
-2.28267796325798,1.61705131134579,0.201
-2.26483530760602,1.59304590505727,0.202
-2.24650397916928,1.56880295654059,0.203
-2.22766144903373,1.54433686576416,0.204
-2.20829799370834,1.51966873814913,0.205
-2.18842301095442,1.49477910702121,0.206
-2.16804796975801,1.46971588970431,0.207
-2.14717578789708,1.44449494830938,0.208
-2.12582278227435,1.41914549582693,0.209
-2.1040075667635,1.39368376252266,0.21
-2.08174733506674,1.36812873074196,0.211
-2.0590705756095,1.34248168831611,0.212
-2.03598663038005,1.31677356346428,0.213
-2.01251132048682,1.29103968238221,0.214
-1.98869081715802,1.26527699721812,0.215
-1.96453724501151,1.23951185279565,0.216
-1.94006976893456,1.2137759585116,0.217
-1.9153338871777,1.18808667460119,0.218
-1.89033479699566,1.16245472732475,0.219
-1.8650890702601,1.13693055497231,0.22
-1.83963475238903,1.11151869377441,0.221
-1.81400031283305,1.08623970495463,0.222
-1.78819193524983,1.06112128927536,0.223
-1.76223862837632,1.03617371977149,0.224
-1.73615445103638,1.01141683055001,0.225
-1.70998157846225,0.986859413185447,0.226
-1.68372407571566,0.962512520406707,0.227
-1.6574242001452,0.938400283559581,0.228
-1.63109746594519,0.914533684464231,0.229
-1.60476717030059,0.890935537674726,0.23
-1.57847273800062,0.867632625258939,0.231
-1.55223628466607,0.844646272100574,0.232
-1.5261005775795,0.821965827784862,0.233
-1.50008044807546,0.799617542580452,0.234
-1.47419166715936,0.777625462691168,0.235
-1.44845249217569,0.755978636043903,0.236
-1.42288771479766,0.734690277155295,0.237
-1.39751521940274,0.713778130627976,0.238
-1.37233435363199,0.69321843601727,0.239
-1.34736524054457,0.673043922310472,0.24
-1.32262761641983,0.65325841999714,0.241
-1.29812154469208,0.63385832218968,0.242
-1.27384462762994,0.614860508924999,0.243
-1.24981954944189,0.596267312160124,0.244
-1.22604538880875,0.578075943103828,0.245
-1.20253559820194,0.560289735452912,0.246
-1.17930178305936,0.542911668204559,0.247
-1.15634881471768,0.525933657888542,0.248
-1.13367248695334,0.509363062137637,0.249
-1.11128536785723,0.493211883549373,0.25
-1.08920207201672,0.477466886042309,0.251
-1.0674187951972,0.46211733513705,0.252
-1.04592902378585,0.447179049079347,0.253
-1.02475543185164,0.432627333922031,0.254
-1.00389700849535,0.418478011833743,0.255
-0.983370380866608,0.404728116231624,0.256
-0.963161918884154,0.391345876952029,0.257
-0.943267814135747,0.378350413713364,0.258
-0.923690642342238,0.365728840721575,0.259
-0.904443647116984,0.353459793593428,0.26
-0.885508143125635,0.341554692510789,0.261
-0.866881467237491,0.33001475590257,0.262
-0.848586764739763,0.318815434806759,0.263
-0.830605680022134,0.307986769828963,0.264
-0.812943797131424,0.297509953005627,0.265
-0.795624285682025,0.287349589248684,0.266
-0.778618326401946,0.277525918224149,0.267
-0.761927080786218,0.268024928963226,0.268
-0.745583758084672,0.258809869339756,0.269
-0.72957383752531,0.249938740377759,0.27
-0.713888200820201,0.241379082853957,0.271
-0.698542772064751,0.233135188477488,0.272
-0.683537099080014,0.22519218269854,0.273
-0.66886479367915,0.217562799527561,0.274
-0.654527945538008,0.210225278674618,0.275
-0.640539179445059,0.203189773638668,0.276
-0.626884931566954,0.196441307435877,0.277
-0.613569798016491,0.189985078426119,0.278
-0.600587950563852,0.183816105834046,0.279
-0.587947395818101,0.177927176811091,0.28
-0.575629242891118,0.172305004982919,0.281
-0.56364745629578,0.1669681085067,0.282
-0.552014074878609,0.161888077774604,0.283
-0.540715611090353,0.157075315968919,0.284
-0.529743721862936,0.152525382083156,0.285
-0.519085659274476,0.148230706150702,0.286
-0.50875179838891,0.144185092590765,0.287
-0.498740824896638,0.140382552701789,0.288
-0.489026948016223,0.136821613856305,0.289
-0.479597629681018,0.133486767428713,0.29
-0.470436864529506,0.130384423009479,0.291
-0.461521205603248,0.127524678046425,0.292
-0.452857324307945,0.124867893202597,0.293
-0.444419262230746,0.122400193933238,0.294
-0.436170465325131,0.120137956026893,0.295
-0.428098281186867,0.118063333568145,0.296
-0.420184461512488,0.116166388686289,0.297
-0.412381646413721,0.114461035991582,0.298
-0.404682673530585,0.112916115677149,0.299
-0.397065242452925,0.111521114923289,0.3
-0.389492332991673,0.110298468985824,0.301
-0.381945184618384,0.109198207337287,0.302
-0.374399333950164,0.108234176190689,0.303
-0.366809399848172,0.10741733310318,0.304
-0.359168392089793,0.106724032143411,0.305
-0.351456350593429,0.106156880512642,0.306
-0.343643961034582,0.105730913310066,0.307
-0.335690570990978,0.105413996547254,0.308
-0.32758338646235,0.105211784492106,0.309
-0.319294878139973,0.105117919043823,0.31
-0.310805859271103,0.105114335915001,0.311
-0.302074162106067,0.105216411161932,0.312
-0.293077793864765,0.105428959081084,0.313
-0.28378916645081,0.105732044901665,0.314
-0.274180650049178,0.106128139200019,0.315
-0.264224464956546,0.10662433399184,0.316
-0.253900965028735,0.107205577566797,0.317
-0.243181545654989,0.107875247597757,0.318
-0.23203502165546,0.108640792828998,0.319
-0.220438724512518,0.109500394175675,0.32
-0.208375268049828,0.110431688599411,0.321
-0.195818166533793,0.111450310221488,0.322
-0.18273206326538,0.112565515100134,0.323
-0.169106994616031,0.113771597658384,0.324
-0.154921831490056,0.115067188092754,0.325
-0.140189562945423,0.116448855283489,0.326
-0.124872005192154,0.117940075827464,0.327
-0.108974299185943,0.119540064700139,0.328
-0.0924890203712938,0.12124385968926,0.329
-0.0754288263473205,0.123061124277683,0.33
-0.0577928125247721,0.124988759179438,0.331
-0.0395647104818574,0.127031513989308,0.332
-0.0207635150763428,0.129187718821301,0.333
-0.00138193887971461,0.131476799878198,0.334
0.0185667300725334,0.133896865820469,0.335
0.0390758667580823,0.136448501093228,0.336
0.0601280419054947,0.139146434423194,0.337
0.0817016857376634,0.1420001034887,0.338
0.103785703606603,0.145016015373577,0.339
0.126344085110614,0.148213897973305,0.34
0.149356322042615,0.151587018963069,0.341
0.172801027752166,0.155140302153375,0.342
0.196647832018572,0.158886929943796,0.343
0.220853986441164,0.162820913339555,0.344
0.245388642987019,0.16694868477164,0.345
0.270214004741329,0.171282903376437,0.346
0.295294999703646,0.175826230261779,0.347
0.320589710588816,0.180580607131142,0.348
0.346053875895687,0.18556582654984,0.349
0.371636255988503,0.190765194995762,0.35
0.397290919921214,0.196175328410233,0.351
0.422980419196031,0.201797486194283,0.352
0.44865586742432,0.207639627685901,0.353
0.474261473753618,0.213696858341816,0.354
0.499753282594849,0.219960047683577,0.355
0.525086531207746,0.226423505851902,0.356
0.550225570572556,0.233082775321246,0.357
0.57510767249444,0.239948669254068,0.358
0.599686217219723,0.246999659122386,0.359
0.623906348059971,0.254229215000533,0.36
0.647720627600749,0.261623725802725,0.361
0.671067139526558,0.269178622278488,0.362
0.693881802942342,0.27689331570153,0.363
0.716108128843215,0.28475255643407,0.364
0.737666674838855,0.292728342323659,0.365
0.758497297275934,0.300828650743823,0.366
0.778555543088149,0.309070310374449,0.367
0.797763094625046,0.317435466313194,0.368
0.81605244397773,0.325940657475636,0.369
0.833393111887065,0.334601879996624,0.37
0.849717706398379,0.343373755820165,0.371
0.864963907705304,0.35227199195271,0.372
0.879080897323358,0.361297334455118,0.373
0.892028195985044,0.370459927627834,0.374
0.903753522668906,0.379737993525981,0.375
0.914216312205607,0.389157990317672,0.376
0.923381971517947,0.398717662138557,0.377
0.931199921248908,0.408412466714617,0.378
0.9376228028668,0.418259378935341,0.379
0.942607493203368,0.428255080993915,0.38
0.946136594691967,0.438389825610864,0.381
0.948162839803655,0.448674460759499,0.382
0.948665179290822,0.459112480685599,0.383
0.947663146092353,0.469699900177241,0.384
0.945133933191662,0.480450094735846,0.385
0.941040937973556,0.491355350396847,0.386
0.935371634784337,0.502404104155868,0.387
0.928151010260283,0.513601779311056,0.388
0.919394683910574,0.524957630160444,0.389
0.90909277555303,0.536465423396812,0.39
0.897263740453122,0.548152114444098,0.391
0.883903209333017,0.560023111499323,0.392
0.869025149024681,0.572043583030596,0.393
0.852671011409405,0.584261750736716,0.394
0.83486853781477,0.59670187353167,0.395
0.815606424795638,0.609358916147421,0.396
0.794916233810981,0.622259918143984,0.397
0.77283912784212,0.635418957183646,0.398
0.749389323660055,0.648865351339585,0.399
0.724584956718787,0.662649427342166,0.4
0.69846711039963,0.676802991664202,0.401
0.671053652245523,0.691327679665952,0.402
0.642375015438847,0.706293726643814,0.403
0.612461867203692,0.721727888214656,0.404
0.581346537894119,0.737658817096929,0.405
0.549061452664966,0.754133724849176,0.406
0.515653937650181,0.771171918629145,0.407
0.481162835066583,0.788798437977441,0.408
0.445605508392427,0.807048509531008,0.409
0.409033763200025,0.825963393958945,0.41
0.371489044345648,0.845565830352963,0.411
0.33302723173123,0.865897172654835,0.412
0.293673385523812,0.886967421673911,0.413
0.253476844741081,0.908804943017916,0.414
0.212475155063257,0.931440327168302,0.415
0.170697029466555,0.954892311576562,0.416
0.128214927121479,0.979179836530487,0.417
0.0850682139573158,1.00433938940272,0.418
0.0412959293763544,1.03038682322137,0.419
-0.00304979518883162,1.05731495691687,0.42
-0.0479320820072909,1.08516136929568,0.421
-0.0933075332896302,1.11395371790052,0.422
-0.139141402294964,1.14368496626133,0.423
-0.185385110610322,1.17436176671965,0.424
-0.232003179466577,1.20600014363411,0.425
-0.27895680025961,1.23861450081071,0.426
-0.326180196943913,1.27220870831263,0.427
-0.373641211015521,1.30677425030269,0.428
-0.421295673968959,1.34232193674501,0.429
-0.469102680614383,1.37885127908788,0.43
-0.516997166038609,1.41636431258071,0.431
-0.564944269231326,1.45487124152625,0.432
-0.612917194448239,1.49435672531259,0.433
-0.660869593128398,1.53480606134072,0.434
-0.708776967766897,1.57621728025126,0.435
-0.756598288235151,1.61858400346617,0.436
-0.804303808849357,1.66188801543635,0.437
-0.851879822431992,1.70613221163288,0.438
-0.899286172734358,1.75126611234967,0.439
-0.946505592772378,1.79728582954878,0.44
-0.993502913864725,1.84417345720894,0.441
-1.04024743349739,1.89188825127988,0.442
-1.08673305402796,1.94040020213027,0.443
-1.13294355691106,1.98968222310632,0.444
-1.1788497354326,2.03970313475071,0.445
-1.22440761802617,2.09042219466111,0.446
-1.26959740626571,2.14177600463506,0.447
-1.31441066711252,2.19372930473147,0.448
-1.35881705784742,2.24624305085585,0.449
-1.40278479598091,2.29924582217625,0.45
-1.44628068925447,2.35269903997632,0.451
-1.48930720067855,2.40656165209235,0.452
-1.53185618782575,2.46078595988035,0.453
-1.57392416976754,2.51530012630099,0.454
-1.61551135166864,2.57005631510721,0.455
-1.65662374137386,2.62501880989082,0.456
-1.69728158542838,2.68012546431963,0.457
-1.73750885298832,2.73534511560999,0.458
-1.77733635459207,2.79060593338857,0.459
-1.81678813266949,2.84588043737784,0.46
-1.85588741420421,2.90112085919506,0.461
-1.89466545037464,2.95630213644137,0.462
-1.93314696240843,3.01137676955068,0.463
-1.97134006438585,3.06628412348045,0.464
-2.00926208226272,3.12099755550178,0.465
-2.04690473641501,3.17547286253076,0.466
-2.08426724238757,3.22966085558546,0.467
-2.12134961763443,3.28350446658725,0.468
-2.15815052159648,3.33695986136385,0.469
-2.1946564418883,3.38995953518475,0.47
