Drag (N),Lift (N),Time (s)
-0.015,-0.192,0
-0.00262846414857417,-0.194262352846649,0.001
0.009709963773718,-0.196542631317189,0.002
0.0219663606460938,-0.198811929216351,0.003
0.0341315665667144,-0.201048893206765,0.004
0.0461854364300931,-0.203286687700527,0.005
0.0581071695498695,-0.205517378657909,0.006
0.069844492951111,-0.207691592451129,0.007
0.0813997336809803,-0.209834890287772,0.008
0.0927591710277399,-0.211909221956073,0.009
0.103904600095949,-0.213930312491622,0.01
0.114775953141379,-0.215852257337093,0.011
0.125401634859224,-0.217707285298338,0.012
0.135777679354183,-0.219474671164529,0.013
0.145870622814997,-0.221149821203024,0.014
0.155668891681518,-0.222734348653714,0.015
0.165179325098666,-0.224231584851556,0.016
0.174385888051349,-0.225615253377342,0.017
0.183287385283379,-0.226889464757675,0.018
0.191873409629813,-0.228074685830556,0.019
0.200144824462317,-0.229160609069706,0.02
0.208091643372461,-0.230138011860798,0.021
0.215691262520819,-0.23100852521271,0.022
0.222950555121276,-0.231790950194309,0.023
0.229883289740268,-0.232470816669327,0.024
0.236464752263857,-0.233064406670432,0.025
0.242697882788514,-0.233550571375481,0.026
0.248582387039094,-0.233958186186644,0.027
0.254131722877016,-0.234292098591153,0.028
0.259341326835654,-0.234547116609269,0.029
0.264222881400227,-0.234712622878005,0.03
0.268781191969252,-0.234812716851685,0.031
0.273039429357462,-0.234837448805332,0.032
0.277028871815934,-0.234812678519555,0.033
0.280739648283548,-0.234707284204909,0.034
0.284164220200535,-0.234551991440276,0.035
0.287349916167322,-0.23432986660931,0.036
0.290315881590996,-0.234093779644658,0.037
0.293063929617361,-0.233814316854196,0.038
0.295628738683425,-0.233494910759685,0.039
0.297998971544053,-0.233149314629666,0.04
0.300209677537309,-0.232762996148806,0.041
0.302264010076868,-0.232336487101056,0.042
0.304170267470245,-0.231897077649021,0.043
0.305924584301837,-0.231442315831477,0.044
0.307549279784915,-0.230976520943668,0.045
0.309057894919468,-0.230493619373876,0.046
0.310456009449403,-0.230029498318471,0.047
0.311750217007134,-0.229578347932317,0.048
0.312967681506965,-0.229121461221314,0.049
0.314106325900617,-0.228663109908292,0.05
0.315170778293538,-0.228234512046051,0.051
0.31615694001188,-0.227819309243402,0.052
0.317083638498235,-0.227405632409655,0.053
0.317964779305916,-0.226995996865345,0.054
0.318804168502317,-0.226596601305338,0.055
0.319599818004822,-0.226219990261701,0.056
0.3203491143291,-0.225850428657346,0.057
0.321078249996174,-0.225466165356597,0.058
0.321783240989755,-0.225081904638296,0.059
0.322456704580528,-0.224709709123585,0.06
0.32311478458414,-0.224318024723339,0.061
0.323759604646731,-0.223904379583358,0.062
0.324391222795697,-0.223516205058839,0.063
0.325012912961865,-0.223126634273683,0.064
0.325613915538539,-0.222732141980673,0.065
0.326204078588904,-0.222364551655504,0.066
0.326774859700985,-0.221994640400364,0.067
0.327309031856711,-0.221632840811892,0.068
0.327821960720765,-0.221263184294326,0.069
0.328316430063036,-0.220913687566912,0.07
0.328789994949038,-0.220566729967855,0.071
0.3292416588166,-0.220227357875417,0.072
0.329656114204838,-0.219888070071811,0.073
0.330024840392144,-0.219563263806393,0.074
0.330354998744618,-0.219259697614534,0.075
0.330651970680219,-0.218971487561811,0.076
0.33091417229988,-0.218675972454836,0.077
0.331138697344417,-0.21839432551284,0.078
0.331330386961496,-0.218124334280836,0.079
0.331483700511279,-0.21786290154525,0.08
0.331608739175048,-0.21759819323017,0.081
0.331706674893371,-0.217353074540381,0.082
0.331765933157546,-0.217126540899715,0.083
0.331801060636766,-0.216925233210236,0.084
0.33181964026681,-0.216723631917682,0.085
0.331816946694571,-0.216534634425142,0.086
0.331789850881146,-0.216358910850146,0.087
0.331720105596086,-0.216194423537859,0.088
0.331607423175765,-0.216047328999687,0.089
0.331471872615189,-0.215924872061107,0.09
0.331319989197104,-0.215832810983864,0.091
0.331118534915187,-0.215718784144078,0.092
0.330884685032333,-0.215613326926507,0.093
0.330618583649097,-0.21551808731374,0.094
0.330332530452333,-0.215456924517121,0.095
0.330006271452399,-0.215389862978611,0.096
0.329659831677754,-0.215358015793499,0.097
0.329295557740534,-0.21535781931785,0.098
0.328922817307593,-0.215362191296031,0.099
0.328533912002732,-0.215384962395348,0.1
0.328142866839646,-0.215442846499031,0.101
0.327741956545487,-0.21550492061501,0.102
0.327351877295768,-0.215557969141213,0.103
0.326984205007522,-0.215637071623587,0.104
0.326630850915613,-0.215731550582481,0.105
0.326278935332703,-0.215812861879078,0.106
0.325933349340788,-0.215893743802965,0.107
0.325625180034791,-0.215983940754682,0.108
0.325345772741292,-0.216079181923813,0.109
0.325074912820012,-0.216184359566235,0.11
0.324825038076016,-0.216278709926336,0.111
0.324635716507212,-0.2163813564004,0.112
0.324491738405453,-0.216499784687488,0.113
0.324374889508043,-0.216629775687488,0.114
0.324305516360198,-0.216773046511939,0.115
0.32427609225563,-0.216902491179673,0.116
0.324286487360554,-0.217036678250206,0.117
0.324355294996403,-0.217193328706384,0.118
0.324470054267446,-0.217343926700999,0.119
0.324602962236656,-0.217486307822444,0.12
0.324758613860754,-0.217620740656887,0.121
0.324954950783856,-0.217743421775514,0.122
0.325200336177459,-0.217848616138811,0.123
0.325471257636031,-0.217928865838381,0.124
0.325760218039667,-0.218001561058021,0.125
0.326104782182787,-0.218049836333289,0.126
0.326486455962671,-0.218079608607415,0.127
0.32693093841845,-0.218080576774979,0.128
0.327435636428957,-0.218046202748363,0.129
0.32800898427476,-0.217986181419805,0.13
0.328650398398633,-0.217903243609449,0.131
0.329367846607359,-0.217784766056649,0.132
0.33016086841255,-0.217658290725003,0.133
0.331009050485502,-0.217501130814313,0.134
0.331929123059655,-0.217333751273165,0.135
0.332932725487865,-0.217149368220189,0.136
0.333997727330362,-0.216956931695948,0.137
0.335131613261122,-0.216735945457643,0.138
0.336334889494455,-0.216514297055321,0.139
0.337581764263785,-0.216288377290942,0.14
0.33890564706468,-0.216066251387834,0.141
0.340293260020365,-0.215857799447441,0.142
0.341756535384258,-0.215667501162216,0.143
0.343288475066839,-0.215494865464549,0.144
0.344904269012268,-0.215336697268609,0.145
0.346610592565073,-0.215196512978377,0.146
0.34841094501817,-0.215096776395482,0.147
0.350312377282454,-0.21503024387971,0.148
0.352325474760464,-0.214983306805005,0.149
0.354437514484396,-0.214983483424467,0.15
0.356661373498512,-0.215035908615795,0.151
0.359005202229634,-0.215134227150818,0.152
0.361477671445344,-0.215307511883789,0.153
0.364070533022819,-0.215548114079384,0.154
0.366778299989657,-0.21585449486134,0.155
0.369603822354115,-0.216220536313729,0.156
0.37253991065284,-0.216661285796741,0.157
0.375599040885503,-0.217169724274563,0.158
0.378747418140066,-0.217779310704402,0.159
0.381979794869279,-0.218488191148496,0.16
0.385305958222138,-0.219283835261451,0.161
0.388723537248685,-0.220190412080508,0.162
0.392227243800429,-0.221221148352964,0.163
0.395803702221269,-0.222319620586603,0.164
0.399455679698033,-0.22350213568558,0.165
0.403184911881603,-0.224787950481761,0.166
0.40698637742132,-0.226157421856332,0.167
0.410851996112834,-0.227606761654405,0.168
0.414779676527347,-0.229146873839362,0.169
0.418755889094627,-0.23076938356757,0.17
0.422781841864313,-0.232457621397351,0.171
0.426840780695315,-0.234220969329321,0.172
0.430921239586369,-0.236052720217007,0.173
0.435029827784887,-0.237950203754075,0.174
0.439161727031017,-0.239894206232736,0.175
0.443293337672122,-0.241878686749034,0.176
0.447412709513064,-0.243900616348596,0.177
0.451500301555823,-0.245963672231875,0.178
0.455554230919921,-0.248054979913311,0.179
0.459556222334467,-0.250165566160372,0.18
0.463500438573055,-0.252281748204117,0.181
0.467351467490686,-0.254401407090317,0.182
0.471113639178143,-0.2564942424557,0.183
0.474783594311573,-0.258557169270348,0.184
0.478327943063356,-0.260588118011243,0.185
0.481729594178247,-0.26256831225419,0.186
0.485002039868164,-0.264488724388071,0.187
0.488130771491406,-0.266366539399392,0.188
0.491098056721104,-0.268175020991098,0.189
0.493913477296525,-0.269906350510947,0.19
0.496565877291017,-0.271546682441674,0.191
0.499044787585252,-0.273094471016262,0.192
0.501330416785006,-0.274567396090228,0.193
0.503431528395168,-0.275943050359196,0.194
0.505342532659899,-0.277211810391819,0.195
0.507048909029559,-0.278367388991563,0.196
0.508550956993295,-0.279419534436872,0.197
0.509842546564455,-0.280340278294242,0.198
0.51092761052709,-0.281125132077441,0.199
0.511801516595683,-0.281793750080695,0.2
0.512457630687392,-0.282334885628867,0.201
0.512917208447166,-0.282736693066812,0.202
0.513184350518692,-0.283016708945768,0.203
0.513259162834553,-0.283174652511718,0.204
0.513156244326372,-0.283187752459448,0.205
0.512879887739185,-0.283075978650658,0.206
0.512456012538886,-0.282857842748094,0.207
0.511879297485267,-0.282522791082315,0.208
0.511148021727509,-0.282075899585079,0.209
0.510280299172006,-0.281493288730181,0.21
0.509296770646826,-0.280799735207337,0.211
0.508197611170986,-0.279996624405375,0.212
0.506973420432305,-0.27908795193169,0.213
0.505632830303253,-0.278055886604136,0.214
0.504189224157535,-0.27692254238957,0.215
0.502648417284109,-0.275676961088024,0.216
0.501030459588753,-0.274340833706204,0.217
0.499340928865323,-0.272902836931009,0.218
0.497577907971921,-0.271357427911221,0.219
0.495758938342752,-0.269744511894956,0.22
0.493932784918363,-0.268065025414675,0.221
0.492105055843641,-0.266322517161155,0.222
0.49027666471814,-0.264552934128743,0.223
0.488473391739806,-0.262759629170453,0.224
0.486731721629894,-0.260925775604712,0.225
0.485058038043041,-0.259085903887291,0.226
0.483446818744423,-0.257229804456553,0.227
0.481925771974837,-0.255381047458765,0.228
0.480480946102058,-0.25356523943644,0.229
0.479128065556015,-0.251786530288955,0.23
0.477879326745529,-0.250055272803744,0.231
0.47673762049193,-0.248380481026871,0.232
0.475713139361503,-0.246774389747171,0.233
0.474807915342294,-0.245229890212086,0.234
0.474058393588866,-0.24375198933184,0.235
0.473460261931345,-0.242369763676576,0.236
0.473020520949729,-0.241070789929793,0.237
0.472751330332889,-0.239873050678974,0.238
0.472635843222211,-0.238781935487129,0.239
0.472694964617456,-0.237790095767541,0.24
0.472940950487593,-0.236894100193824,0.241
0.473363937572224,-0.236102343257286,0.242
0.473958487918419,-0.235412825338392,0.243
0.474705979768876,-0.234827651682907,0.244
0.475611388771884,-0.234348730403736,0.245
0.476684761230851,-0.233978002362591,0.246
0.477886551249684,-0.233704747799705,0.247
0.479215099559126,-0.233524913683635,0.248
0.480660914222988,-0.233445123408182,0.249
0.482212357326446,-0.233475907520046,0.25
0.48386763929008,-0.233610680973039,0.251
0.485629734520106,-0.233853220937259,0.252
0.487485085394288,-0.234195043823402,0.253
0.489450910668776,-0.234624791190252,0.254
0.491524347259621,-0.235153452790134,0.255
0.493715453124191,-0.235786137171783,0.256
0.496021468859792,-0.236544414571974,0.257
0.498471108439342,-0.237406543450657,0.258
0.501068084193386,-0.238390477365628,0.259
0.503836221354031,-0.239467801695418,0.26
0.506787765482798,-0.240653576690231,0.261
0.509927288761527,-0.24195204725424,0.262
0.513256913538917,-0.243352352706242,0.263
0.516794791413819,-0.244860928819073,0.264
0.520555872719231,-0.246518591576904,0.265
0.524538283854109,-0.248311264951836,0.266
0.528746418706478,-0.250246133496643,0.267
0.533205483289718,-0.252327908133026,0.268
0.537930504619959,-0.254571155560491,0.269
0.542932769424831,-0.256977821159157,0.27
0.54823843717626,-0.259550148748614,0.271
0.55384733850337,-0.262283882600709,0.272
0.559786185293797,-0.265192449407931,0.273
0.566076008772856,-0.268284502817646,0.274
0.572728271699171,-0.271563611712159,0.275
0.579749942531675,-0.2750382115626,0.276
0.587160760054084,-0.278703504320135,0.277
0.594975667148263,-0.282575411926143,0.278
0.603197861803001,-0.286633935613903,0.279
0.611827715747492,-0.29088155155593,0.28
0.620876273219563,-0.295326975869225,0.281
0.630328922675732,-0.299979041029804,0.282
0.640196769770961,-0.30483942929161,0.283
0.650453868146599,-0.309909749526223,0.284
0.66110190030812,-0.31517560777454,0.285
0.672112459946394,-0.32061949182769,0.286
0.68347392123063,-0.326252005454683,0.287
0.695137793634962,-0.332045815107471,0.288
0.707083435908733,-0.337961534236212,0.289
0.719296201440195,-0.343990881277114,0.29
0.731712321257661,-0.350109268350772,0.291
0.744278886355298,-0.35630232511765,0.292
0.75694343683429,-0.362543259194926,0.293
0.769696621695201,-0.368791746721609,0.294
0.782467009050104,-0.375033761955787,0.295
0.795182780186687,-0.381233634864826,0.296
0.807789569681086,-0.387355278781834,0.297
0.820233352725508,-0.393370316516535,0.298
0.832443235210361,-0.399246797464005,0.299
0.844344830628013,-0.404946915834599,0.3
0.855870959805398,-0.410420330141464,0.301
0.866968147398785,-0.415635156432831,0.302
0.877542438699977,-0.420562961241992,0.303
0.887541916924969,-0.425159216938209,0.304
0.896893119124393,-0.429411193671512,0.305
0.905516954588947,-0.433273434052862,0.306
0.913361660249799,-0.436701562865945,0.307
0.920362409058471,-0.439664354426715,0.308
0.92648562453756,-0.442138681386195,0.309
0.931679960319795,-0.444113699664518,0.31
0.935902425355961,-0.445609519707605,0.311
0.93912355581451,-0.446575070580994,0.312
0.941315510671135,-0.44700941723911,0.313
0.942471298514897,-0.446886246655325,0.314
0.94259115300854,-0.446218232254786,0.315
0.941652476292849,-0.444987070529745,0.316
0.93965033721975,-0.443222202039806,0.317
0.936589897536624,-0.440915012239163,0.318
0.932485911741966,-0.438052823291244,0.319
0.927355876820227,-0.434666088978931,0.32
0.921217112797344,-0.430732542276659,0.321
0.914100046134123,-0.426268749837339,0.322
0.906021596434555,-0.421294514006228,0.323
0.897029777569556,-0.415813470515263,0.324
0.887166248602055,-0.409852212025733,0.325
0.876485588323766,-0.403476389352663,0.326
0.865051528951589,-0.396673085899117,0.327
0.852941002734443,-0.389504985857069,0.328
0.840243779009226,-0.381985426187539,0.329
0.827054552945557,-0.374138238556669,0.33
0.813444002417647,-0.366019374203577,0.331
0.799500993732294,-0.357654540724613,0.332
0.785336068707358,-0.34910712431255,0.333
0.771037433950949,-0.340409831566325,0.334
0.756706249778138,-0.331615484222104,0.335
0.742419895428099,-0.322799868341289,0.336
0.72828248640927,-0.313978472725872,0.337
0.714381548162894,-0.305223913929797,0.338
0.700826495938121,-0.296579970613785,0.339
0.687735909621451,-0.288106229423662,0.34
0.675175482082383,-0.279847635389905,0.341
0.663251341302193,-0.271878589453744,0.342
0.652055113836387,-0.264236495193667,0.343
0.641691939676717,-0.256965712934626,0.344
0.632276229411578,-0.250129060455357,0.345
0.623866679348743,-0.243782561958358,0.346
0.616517501714903,-0.237972595285016,0.347
0.61036453134085,-0.232737922135994,0.348
0.605448571351139,-0.228133511459334,0.349
0.601816128832309,-0.224155594013027,0.35
0.599527639854067,-0.220825349813609,0.351
0.598619523476698,-0.218175726769726,0.352
0.599096309175344,-0.216232675416083,0.353
0.600958065423058,-0.215008953278661,0.354
0.60419244544716,-0.214510737518005,0.355
0.608798570564859,-0.214746248668635,0.356
0.614730006606461,-0.215708089582678,0.357
0.621957069527347,-0.217380029887988,0.358
0.630405188230115,-0.21975871520681,0.359
0.640021426036084,-0.222807243949031,0.36
0.650747224632527,-0.226544702891164,0.361
0.662503722459331,-0.230903953149149,0.362
0.67522761628907,-0.235873040542259,0.363
0.688844971333567,-0.241430788461663,0.364
0.70327519712121,-0.247516936448544,0.365
0.718402323967256,-0.254063164517276,0.366
0.734154436097205,-0.261054539484393,0.367
0.750450524979017,-0.268422266496217,0.368
0.767145803548466,-0.276126222232483,0.369
0.784144845984355,-0.284102908562826,0.37
0.801320178311314,-0.292282483384823,0.371
0.818541830160279,-0.30064003632723,0.372
0.835711908833986,-0.309138038096269,0.373
0.852706225822926,-0.317696645115005,0.374
0.869385124586815,-0.326250302307499,0.375
0.885636216433844,-0.334739752520099,0.376
0.901368736429808,-0.343126245790578,0.377
0.916479095571061,-0.351359351167834,0.378
0.930851117617867,-0.359386530338128,0.379
0.944414785603712,-0.367185303522434,0.38
0.957099774165827,-0.374708467608234,0.381
0.96883354045426,-0.381894687242322,0.382
0.979580956210893,-0.388714127398511,0.383
0.989291032896187,-0.395126483151719,0.384
0.997946158601025,-0.401094527300073,0.385
1.00549875935499,-0.406598247042886,0.386
1.01195969129314,-0.411622517077652,0.387
1.01732041462524,-0.416170311697878,0.388
1.02158714581228,-0.420224506864846,0.389
1.02476885100903,-0.4237935921263,0.39
1.02687537295955,-0.426879847011711,0.391
1.0279467783042,-0.429495571896357,0.392
1.02802159106608,-0.431634628231393,0.393
1.02715417850305,-0.433305775036572,0.394
1.02537546450765,-0.434554896907524,0.395
1.02274334181281,-0.435390829081941,0.396
1.01935804255908,-0.435829742241071,0.397
1.01529841790074,-0.435913040005697,0.398
1.01063955290908,-0.435655394254172,0.399
1.00549321078228,-0.435096895284932,0.4
0.999955879786603,-0.434289532828545,0.401
0.994110072979628,-0.43325757388616,0.402
0.988064275866203,-0.432044529289326,0.403
0.981935103164398,-0.430678450043137,0.404
0.975797029021697,-0.429220815607832,0.405
0.969759075188297,-0.427678338532435,0.406
0.963933499486535,-0.426094162512155,0.407
0.958407077761022,-0.424531980306786,0.408
0.953258985507234,-0.422998708475861,0.409
0.948563077841701,-0.421524879948113,0.41
0.94438502734402,-0.420135093853095,0.411
0.940773977791454,-0.418854202191236,0.412
0.937787441927956,-0.417707414212825,0.413
0.935472217851829,-0.41671579766964,0.414
0.933870449532744,-0.415917485650003,0.415
0.932990033594315,-0.415312631504859,0.416
0.932897500409103,-0.414920085785215,0.417
0.933613473727326,-0.414729281221144,0.418
0.935150273966377,-0.414772630237306,0.419
0.937521391102181,-0.415070397696987,0.42
0.940743114506221,-0.415612760758274,0.421
0.944819546244644,-0.416425179711737,0.422
0.949735617144839,-0.417513466441844,0.423
0.955500153210652,-0.418872966222807,0.424
0.962092456358034,-0.420486354067779,0.425
0.9694645702266,-0.422356381736468,0.426
0.97756465856528,-0.424447018853771,0.427
0.986365104570531,-0.426758665148866,0.428
0.995793561280681,-0.429287185322477,0.429
1.0057680453892,-0.432030686664733,0.43
1.01621096553264,-0.43495086326612,0.431
1.0270655061852,-0.438035640416633,0.432
1.03824513558631,-0.441284650497316,0.433
1.04964994908453,-0.44463692593741,0.434
1.06121641173614,-0.448084663626841,0.435
1.07285637995004,-0.451599387604035,0.436
1.08449124080533,-0.455148371239812,0.437
1.09604595943819,-0.458710102744948,0.438
1.10746570826589,-0.462270144562193,0.439
1.11864791233763,-0.46580072780586,0.44
1.12953080852842,-0.469265295067344,0.441
1.14007335894302,-0.472660217117892,0.442
1.15019551509539,-0.475944849324137,0.443
1.15982633188731,-0.479097858007995,0.444
1.16888720140704,-0.482122203613541,0.445
1.17730497942473,-0.484974748110407,0.446
1.18505097960497,-0.487596697054227,0.447
1.19209295175102,-0.490007414288038,0.448
1.19832624635833,-0.492203379209246,0.449
1.20372090665849,-0.494129970806316,0.45
1.2082678643771,-0.495825225845861,0.451
1.21192861295014,-0.497307296521969,0.452
1.21467631158228,-0.49854727068038,0.453
1.21651635938387,-0.499515668932096,0.454
1.21747103093057,-0.5002435772072,0.455
1.21754270829013,-0.500743163650567,0.456
1.2167411584113,-0.501002509037532,0.457
