Drag (N),Lift (N),Time (s)
-0.00661080094958338,-0.192471549354197,0
0.00584764238619489,-0.194192110127625,0.001
0.0182737912089842,-0.195932023611308,0.002
0.0306175080914435,-0.197664545118825,0.003
0.0428687104304368,-0.19936874118576,0.004
0.0550087189054917,-0.201078623376197,0.005
0.0670164065499404,-0.20278717251505,0.006
0.0788373964937433,-0.204447342082434,0.007
0.0904751285334452,-0.206084567452957,0.008
0.10191423528946,-0.207661433119264,0.009
0.113137215109791,-0.20919444323658,0.01
0.124082055092726,-0.210640357056753,0.011
0.134778538699249,-0.212030133715548,0.012
0.145221799787714,-0.213343240717869,0.013
0.15537820602119,-0.214576548374236,0.014
0.165236265223532,-0.215732173220698,0.015
0.174802955341097,-0.216813145102205,0.016
0.184061110459268,-0.217793912046413,0.017
0.193009715758128,-0.21867863280396,0.018
0.201639266728983,-0.219488208687107,0.019
0.209950176313779,-0.220212304320316,0.02
0.217932065324147,-0.220842141468162,0.021
0.225562422578118,-0.221380335552792,0.022
0.232848934838904,-0.221845369943242,0.023
0.239804726389837,-0.222222187699175,0.024
0.246405816851631,-0.222528133370881,0.025
0.25265422102377,-0.222741950020002,0.026
0.258550904438547,-0.222892498401826,0.027
0.264109523592901,-0.222984034366179,0.028
0.269325292892642,-0.223011569930559,0.029
0.274209420580981,-0.222963988254502,0.03
0.278767758686194,-0.222865156246457,0.031
0.283023021968625,-0.222704122954634,0.032
0.287007586897174,-0.222505359208713,0.033
0.290710234292394,-0.222238203409934,0.034
0.294124773000484,-0.221933680720595,0.035
0.297297747941558,-0.221572809196846,0.036
0.30025059245459,-0.221207573339944,0.037
0.30298383495244,-0.220808508364775,0.038
0.305532270590425,-0.22037753087392,0.039
0.307885172823103,-0.219928875569546,0.04
0.310076923738643,-0.219446495137207,0.041
0.312110696945458,-0.218930783304744,0.042
0.313995973233088,-0.218408642293482,0.043
0.315728783911903,-0.217877791082983,0.044
0.317331615357241,-0.217341571307068,0.045
0.318817730753835,-0.216793324484629,0.046
0.320194269912434,-0.216268660270365,0.047
0.321467566767889,-0.21576148673862,0.048
0.322663943392855,-0.215251929826907,0.049
0.323781511045875,-0.214744347791894,0.05
0.324826255139805,-0.21426972709859,0.051
0.325793367358822,-0.213811903707011,0.052
0.326701139503502,-0.213358198581699,0.053
0.327563573608893,-0.212910518097446,0.054
0.328384742503129,-0.212474889031004,0.055
0.32916320718061,-0.212063930693774,0.056
0.329895670290042,-0.211662036983558,0.057
0.330607350651759,-0.211246334965222,0.058
0.331294909433007,-0.210831688702742,0.059
0.331951497095337,-0.210430471366446,0.06
0.332591865719024,-0.210010454716364,0.061
0.333218029108203,-0.209569076618809,0.062
0.333832114161696,-0.209153720753719,0.063
0.334436219777597,-0.208737403009449,0.064
0.335019442820848,-0.20831707082149,0.065
0.335593010101974,-0.207924087810157,0.066
0.336147112654582,-0.207529631506137,0.067
0.33666499492038,-0.207144876008524,0.068
0.33716131139898,-0.206753197679242,0.069
0.337640065282866,-0.20638246514549,0.07
0.338098045362118,-0.206015181162982,0.071
0.338534476142997,-0.20565643077638,0.072
0.338933737535408,-0.205299387609457,0.073
0.339287944926776,-0.204958806877237,0.074
0.339604547670342,-0.20464112830806,0.075
0.339888665408532,-0.204340238833549,0.076
0.340137727282426,-0.204033567917459,0.077
0.340349753361809,-0.203742395396053,0.078
0.340529483680713,-0.203464299752215,0.079
0.340671247774204,-0.203196428399549,0.08
0.340784621014338,-0.20292651791822,0.081
0.340871771592477,-0.202677360631075,0.082
0.340921092197292,-0.20244845779106,0.083
0.340947405324849,-0.202245809462772,0.084
0.340957173546328,-0.202043589617897,0.085
0.340946238582934,-0.201854889501062,0.086
0.340911503604034,-0.201680515078754,0.087
0.340834649865239,-0.201519226568547,0.088
0.340715658519974,-0.201377187169923,0.089
0.340574895476857,-0.201260759415623,0.09
0.340419140970341,-0.201175411021775,0.091
0.340212904647368,-0.201070280022634,0.092
0.339974677358562,-0.200975123565592,0.093
0.339704674951317,-0.200891581779147,0.094
0.339416226130095,-0.200842954661155,0.095
0.33908735247321,-0.200790188168069,0.096
0.338739853277762,-0.200773482785149,0.097
0.338375917478466,-0.200789175902477,0.098
0.338003722514835,-0.200809802428834,0.099
0.337616180623051,-0.200849515666251,0.1
0.337228032517452,-0.20092440182754,0.101
0.336830211435969,-0.201003904324135,0.102
0.336442817399475,-0.201073917377792,0.103
0.336078945455598,-0.201168982212095,0.104
0.335730048792795,-0.201278784336967,0.105
0.335382014904484,-0.201375368585358,0.106
0.335040285853826,-0.201471247776825,0.107
0.3347363441925,-0.201574801037362,0.108
0.334461357194283,-0.201682139132971,0.109
0.334195342855958,-0.201799031413411,0.11
0.333949821442255,-0.201904191356127,0.111
0.333765157441948,-0.202014998224338,0.112
0.333626482144769,-0.202139594030532,0.113
0.3335154145894,-0.202274558185222,0.114
0.33345235685501,-0.202420718661803,0.115
0.333428607052774,-0.202551323588311,0.116
0.33344484542167,-0.202684929514378,0.117
0.333520420564826,-0.202838429527111,0.118
0.333641639602735,-0.202983878456707,0.119
0.333780631650298,-0.203120326698681,0.12
0.33394199900642,-0.203247842154368,0.121
0.334143500335512,-0.203361842411451,0.122
0.334393240690274,-0.203456233092486,0.123
0.33466740473438,-0.203524588984077,0.124
0.334959261032685,-0.203584610738196,0.125
0.335305602965022,-0.203617810389268,0.126
0.335688212124397,-0.203630905950334,0.127
0.336132313762244,-0.203612485144002,0.128
0.336635032038095,-0.203556129215819,0.129
0.337205216090212,-0.203471155932485,0.13
0.337842402033487,-0.203360318969417,0.131
0.338553999472223,-0.203210659529663,0.132
0.339340749719891,-0.203049713449198,0.133
0.340181269292429,-0.202855705937523,0.134
0.34109316516832,-0.202648352702594,0.135
0.342087769713587,-0.202420368618351,0.136
0.34314336394702,-0.202181660523128,0.137
0.344266531385292,-0.201911425205113,0.138
0.345458994198756,-0.201637501590828,0.139
0.346694827737874,-0.201357408938446,0.14
0.348007761499879,-0.20107774749326,0.141
0.349384961209565,-0.200808967125898,0.142
0.350838543164929,-0.200555022787554,0.143
0.352361494517013,-0.200315729130384,0.144
0.353968851384828,-0.200087231533511,0.145
0.355667436142843,-0.19987275187964,0.146
0.357461724610687,-0.199694579952827,0.147
0.3593584450252,-0.199545171450782,0.148
0.361367579114033,-0.199410468971075,0.149
0.363477616348171,-0.199318519543585,0.15
0.365701645496,-0.199273891469964,0.151
0.368047532015785,-0.199269880054187,0.152
0.370525206562547,-0.19933515226602,0.153
0.373126095230702,-0.199462426428106,0.154
0.37584464914539,-0.199650404467224,0.155
0.378683448742545,-0.199892849974733,0.156
0.381635967758223,-0.200205109589059,0.157
0.384714364151669,-0.200579626759492,0.158
0.387886334635324,-0.201051302711083,0.159
0.391146555788814,-0.201618514165408,0.16
0.394504258879946,-0.202268315793738,0.161
0.397958129453981,-0.203024957049134,0.162
0.401503461338185,-0.203901882755756,0.163
0.405124430448955,-0.204843306561975,0.164
0.408824512636542,-0.205865399148394,0.165
0.412606281871078,-0.206987323310611,0.166
0.416463864760309,-0.208189673653951,0.167
0.420389023553456,-0.209469018082572,0.168
0.4243801444365,-0.210836341408542,0.169
0.42842334541081,-0.212283866910788,0.17
0.4325191062654,-0.213794888318863,0.171
0.436651098042527,-0.215379509509165,0.172
0.440807573092399,-0.217031529858892,0.173
0.444995017894763,-0.218747993311925,0.174
0.449207780685521,-0.22050991461721,0.175
0.453422020773144,-0.222312288022784,0.176
0.4576256672153,-0.224152608717359,0.177
0.4617993580099,-0.226035402767868,0.178
0.465940650491377,-0.227947890072503,0.179
0.470030895375944,-0.229881903095381,0.18
0.474063664158941,-0.231824026706764,0.181
0.4780034859724,-0.233773688625269,0.182
0.481853365102535,-0.235700428450948,0.183
0.485609810855708,-0.237601310621797,0.184
0.48923937491269,-0.239475724028351,0.185
0.492724163269205,-0.241305655627491,0.186
0.496077261516709,-0.243081497878368,0.187
0.499284924421096,-0.244821052269253,0.188
0.502328270311844,-0.246498381423352,0.189
0.505216530763706,-0.248105256180454,0.19
0.507937956535021,-0.249628330815844,0.191
0.510482021045332,-0.251066517690302,0.192
0.512829722921904,-0.252438343120533,0.193
0.514988839935819,-0.253721038870236,0.194
0.516953367883271,-0.254905234489162,0.195
0.518708525791302,-0.255985282142275,0.196
0.520255038077947,-0.256970907766284,0.197
0.521585560625007,-0.257834436933701,0.198
0.522703826688375,-0.258571213884706,0.199
0.523606065699715,-0.259201076264447,0.2
0.524285159317284,-0.259713077476761,0.201
0.524761826255147,-0.260094455982731,0.202
0.525040928187708,-0.260362552775117,0.203
0.525122558700406,-0.260517082746404,0.204
0.525020309559534,-0.260534659468161,0.205
0.524739340497521,-0.260435046548298,0.206
0.524306353778056,-0.260235607439335,0.207
0.523715572880982,-0.259926030625823,0.208
0.52296550000238,-0.259511462270818,0.209
0.522073190197915,-0.258967255458633,0.21
0.521060345394187,-0.258317262956789,0.211
0.519927200873447,-0.257562861201307,0.212
0.518664539556472,-0.256708452032512,0.213
0.517280207314864,-0.2557358447226,0.214
0.515788539382006,-0.254666548416271,0.215
0.514194867522021,-0.253489361683993,0.216
0.512520168706045,-0.252225080322834,0.217
0.510769521503126,-0.250862148497025,0.218
0.508940768820289,-0.249395112255472,0.219
0.507053176038656,-0.247863073718722,0.22
0.505155502536326,-0.246264841431033,0.221
0.503253505912194,-0.244603716081772,0.222
0.50134966688214,-0.242915570601057,0.223
0.499469887356469,-0.241202630134292,0.224
0.497649883361525,-0.239446492573983,0.225
0.495897538673443,-0.237681377059457,0.226
0.494206890978523,-0.235897324622816,0.227
0.492606650260794,-0.234116674360282,0.228
0.491083995108592,-0.232365617004265,0.229
0.48965481600174,-0.230647612614355,0.23
0.488331749323027,-0.228972472124548,0.231
0.487118076329529,-0.227349074905675,0.232
0.486024513560458,-0.22578919950827,0.233
0.485052780990428,-0.224285655311655,0.234
0.484239507484646,-0.222841854745273,0.235
0.483581653279644,-0.221487034799022,0.236
0.483085670394966,-0.220208478619634,0.237
0.482764491335601,-0.219023621280975,0.238
0.482601520366849,-0.217938582066038,0.239
0.482617322050693,-0.216945107519049,0.24
0.482823991018781,-0.216039234981625,0.241
0.48321203956092,-0.215229781184757,0.242
0.483775947677727,-0.214514985612279,0.243
0.484497203165218,-0.213897763775872,0.244
0.485380860166683,-0.213379804937612,0.245
0.486437040082875,-0.212962609898341,0.246
0.487625767067278,-0.212637194068887,0.247
0.488945206639141,-0.212399580651705,0.248
0.490386164804877,-0.212256800769032,0.249
0.491937474062372,-0.212219882583538,0.25
0.493597059299809,-0.212282325376897,0.251
0.495368056850275,-0.2124477729824,0.252
0.497236551946418,-0.212708341260417,0.253
0.4992192515077,-0.213051931508858,0.254
0.501313774541457,-0.213489647906206,0.255
0.503530392263876,-0.21402615541705,0.256
0.505867288779118,-0.214683124111534,0.257
0.508352202378102,-0.215437580656831,0.258
0.51098962498125,-0.216307299593343,0.259
0.513802119715946,-0.217262854101996,0.26
0.516802577407538,-0.218318755955081,0.261
0.519995751046281,-0.219479046580793,0.262
0.523383287224608,-0.220732783059341,0.263
0.526983600989538,-0.222085603276509,0.264
0.53081340881289,-0.22357763224433,0.265
0.534870224889158,-0.225194889057492,0.266
0.539158752310151,-0.226944359771965,0.267
0.543704378586227,-0.228829651354834,0.268
0.548522751821636,-0.230864661172098,0.269
0.553625232857831,-0.23305084043216,0.27
0.559038054142756,-0.235389289758851,0.271
0.564760860834481,-0.237875764862384,0.272
0.570820925060948,-0.240522514499837,0.273
0.577239635497198,-0.243337266713056,0.274
0.584028599664311,-0.246323086989054,0.275
0.591195147338872,-0.24948809881035,0.276
0.598758789229701,-0.252826647701139,0.277
0.606735148501678,-0.256353988649285,0.278
0.615126547765861,-0.260050002428151,0.279
0.623933466406769,-0.263917146638885,0.28
0.633167318342249,-0.267963647359787,0.281
0.64281389120296,-0.27219896600689,0.282
0.652884353452627,-0.276624298811135,0.283
0.663352853605778,-0.281242384877084,0.284
0.674220444710837,-0.286038770555635,0.285
0.685457983623362,-0.290997199371462,0.286
0.697054318107686,-0.296128772112751,0.287
0.708959811517557,-0.301408296373969,0.288
0.721152124231041,-0.306797323451248,0.289
0.733616262339982,-0.312288218539243,0.29
0.746287445058386,-0.317859198724237,0.291
0.759112186912662,-0.323498215202497,0.292
0.772036909266871,-0.329180789360258,0.293
0.785050511119544,-0.334867043600777,0.294
0.798081016775811,-0.340546081346731,0.295
0.811055119973891,-0.346185399203684,0.296
0.823916932955456,-0.351751316237738,0.297
0.836611244536703,-0.357217838796434,0.298
0.849065834417711,-0.362556139042372,0.299
0.861204737824939,-0.367731691862532,0.3
0.87295864366019,-0.372697133998375,0.301
0.88427273671797,-0.377422944406322,0.302
0.895051911463745,-0.381884814928836,0.303
0.905242358258814,-0.38604052489393,0.304
0.914770128805998,-0.389880560976475,0.305
0.923554224849369,-0.393362958941082,0.306
0.931540996967312,-0.396445643680157,0.307
0.938664317767129,-0.39910024694573,0.308
0.94488963392799,-0.401305127986307,0.309
0.950165174940866,-0.403051692740266,0.31
0.954448867879828,-0.404361907756069,0.311
0.957709049273492,-0.405186035901751,0.312
0.959917863809921,-0.405524357430112,0.313
0.961067178974351,-0.405350889319761,0.314
0.961157781014172,-0.404678282741326,0.315
0.960166295190527,-0.403489237312717,0.316
0.958089079227875,-0.401813380666307,0.317
0.954930914199551,-0.399641881303168,0.318
0.950705987561568,-0.396961429871038,0.319
0.945433108020479,-0.3938016879598,0.32
0.939128607843381,-0.390139654248245,0.321
0.931823607159082,-0.385990552437919,0.322
0.923535873234027,-0.381373428003877,0.323
0.914313532828965,-0.376289818882006,0.324
0.904199365312221,-0.370764475280474,0.325
0.893250761176928,-0.364860604835818,0.326
0.881530828566989,-0.358562523284585,0.327
0.869119160754921,-0.351929499419719,0.328
0.856106023387174,-0.344970941824931,0.329
0.842587061027225,-0.337706528938612,0.33
0.828635324838382,-0.330189075821123,0.331
0.814340717896015,-0.32244038930702,0.332
0.799816441673562,-0.314518973493093,0.333
0.785152045467795,-0.306453656330636,0.334
0.770450897363354,-0.298292796730256,0.335
0.75579360869309,-0.290108733386812,0.336
0.741284871482601,-0.281912398905694,0.337
0.727015295357902,-0.273772522919852,0.338
0.713096101027427,-0.265728069796285,0.339
0.699648354648888,-0.257833397085534,0.34
0.686739647041424,-0.250130541557644,0.341
0.674479250499462,-0.242689204103108,0.342
0.66296033589151,-0.235542756006278,0.343
0.652289878109543,-0.22873092922888,0.344
0.64258491892145,-0.222311491241268,0.345
0.633906542510517,-0.216337852626328,0.346
0.626310932478436,-0.210853982379903,0.347
0.619935485132973,-0.205892680278004,0.348
0.614823362474992,-0.201507083143117,0.349
0.611020862914558,-0.197691396710097,0.35
0.608589288858979,-0.194464144652457,0.351
0.607566461873257,-0.191856654942641,0.352
0.607958039067899,-0.189894655843263,0.353
0.609764645326258,-0.188590889751212,0.354
0.612974215071001,-0.187952066506406,0.355
0.617586229030328,-0.187986437146844,0.356
0.623553974570532,-0.188688636995131,0.357
0.630847087940732,-0.190043745926683,0.358
0.639390922702786,-0.192051665501951,0.359
0.649130982937251,-0.194677838318452,0.36
0.660009598619431,-0.197943887264045,0.361
0.671945054690956,-0.201786177248948,0.362
0.684873586741004,-0.206195526718164,0.363
0.698720406640234,-0.211154004208468,0.364
0.713402372097005,-0.216604921922644,0.365
0.728800643728102,-0.222485083427159,0.366
0.744842722830593,-0.22878270667365,0.367
0.761444677185238,-0.235432595828438,0.368
0.778460107378366,-0.242400981282806,0.369
0.795790908663469,-0.249628587758401,0.37
0.81330668192244,-0.257051199963715,0.371
0.830876493914072,-0.264649600464533,0.372
0.848400908108454,-0.272390565706128,0.373
0.865752371468111,-0.280199745131665,0.374
0.882788500902588,-0.288017737791837,0.375
0.899394429928467,-0.295790245258558,0.376
0.915477789750039,-0.303482513561801,0.377
0.930932890190241,-0.311048678238433,0.378
0.945641373894318,-0.318441318515951,0.379
0.959532309982204,-0.325641030108282,0.38
0.972533381054442,-0.332603722379055,0.381
0.98456943789527,-0.339271282627397,0.382
0.995604084295324,-0.345615436496557,0.383
1.00558462216871,-0.351598141511666,0.384
1.01449183254122,-0.357182974123587,0.385
1.0222773137762,-0.362352015726827,0.386
1.02895125191965,-0.367089681876855,0.387
1.03450524504617,-0.37139931653673,0.388
1.03894475675998,-0.375263540807804,0.389
1.04227911499096,-0.378690445059474,0.39
1.0445182525467,-0.381681877317139,0.391
1.04570273446785,-0.384248378566539,0.392
1.04587078035144,-0.386382135707079,0.393
1.0450770877728,-0.388089527955388,0.394
1.04335455264975,-0.389415047353879,0.395
1.04076139800182,-0.390364995485512,0.396
1.03739846592596,-0.390951155576066,0.397
1.03334633852822,-0.391211452400208,0.398
1.02868066939387,-0.391157268707102,0.399
1.02351486406155,-0.390823781595872,0.4
1.01794758672229,-0.390258722555317,0.401
1.01206233041121,-0.389482736320758,0.402
1.00596937529484,-0.388534560239813,0.403
0.999786448667525,-0.387437131956678,0.404
0.993590635490251,-0.386248623900077,0.405
0.987491146545944,-0.384970986768225,0.406
0.981602014713926,-0.383642426575652,0.407
0.97601271148659,-0.382322790351581,0.408
0.970802638697973,-0.381015534485904,0.409
0.966046912998548,-0.379747941331835,0.41
0.961812217461127,-0.378541722008319,0.411
0.958148733118021,-0.377419561240729,0.412
0.955115017585846,-0.376404135615076,0.413
0.952758743383913,-0.37551445152693,0.414
0.951123677712122,-0.374786767476224,0.415
0.950217716367326,-0.374220892222063,0.416
0.950108148649399,-0.373832756359812,0.417
0.950815117741479,-0.373610903081896,0.418
0.952352346144756,-0.373587176554471,0.419
0.954734194936613,-0.373781233928675,0.42
0.95797650951831,-0.37418255117936,0.421
0.962084498614016,-0.37481638543493,0.422
0.96704336090447,-0.375689200356304,0.423
0.972861710956834,-0.376795960663079,0.424
0.979518114681736,-0.378120260695705,0.425
0.986964781392689,-0.379666941421884,0.426
0.995148352552365,-0.38140226782496,0.427
1.00404125507823,-0.38332784388171,0.428
1.01357103048769,-0.385442693958893,0.429
1.02365569094528,-0.387748503209682,0.43
1.03421604805706,-0.390210386671041,0.431
1.04519481368155,-0.39281875938384,0.432
1.05650552238193,-0.3955770285414,0.433
1.06804570522578,-0.39842864238027,0.434
1.07975154737367,-0.40136857657253,0.435
1.09153374702368,-0.404372227028855,0.436
1.10331233856148,-0.407410327316012,0.437
1.11501142020873,-0.410464659094026,0.438
1.12657558680902,-0.413523190092571,0.439
1.13790114977838,-0.4165626521123,0.44
1.14892481016489,-0.419549216608833,0.441
1.15960541082753,-0.422481047855489,0.442
1.16986120657468,-0.425321031569506,0.443
1.17962038927018,-0.428050948959455,0.444
1.18880455495234,-0.430677186480677,0.445
1.19733874735398,-0.433159837667145,0.446
1.20519174286505,-0.435441415314153,0.447
1.21233216662284,-0.437542671568475,0.448
1.21865531515941,-0.439464653925625,0.449
1.22412887768349,-0.441154100057055,0.45
1.22874545369213,-0.442649406079378,0.451
1.23246736505861,-0.443970386542548,0.452
1.23526653540363,-0.445089327589317,0.453
1.2371470728259,-0.44597654238265,0.454
1.23813258664984,-0.446662115662365,0.455
1.23822598744303,-0.447158100087625,0.456
1.23743651294897,-0.447452161749904,0.457
