Drag (N),Lift (N),Time (s)
-0.370162515078098,3.04475166679174,0
-0.502342993121201,3.17715818682938,0.001
-0.633977455523409,3.30942215997239,0.002
-0.764639033554129,3.44134544239204,0.003
-0.893893713661181,3.5727857820572,0.004
-1.02138439620101,3.70370117152102,0.005
-1.14659281746679,3.83390602637683,0.006
-1.26904016393368,3.96323751219356,0.007
-1.38849189283446,4.09169752517463,0.008
-1.50447633607164,4.21905137579419,0.009
-1.61670346995302,4.34534862569728,0.01
-1.72470530515502,4.47043619003449,0.011
-1.82822479552508,4.59409510690269,0.012
-1.92709563547554,4.71638079406059,0.013
-2.02091055881814,4.83709061707461,0.014
-2.10948554720334,4.95631453617548,0.015
-2.19250477171357,5.07398546341258,0.016
-2.26985238395887,5.18993172270494,0.017
-2.34133108660847,5.30411596335564,0.018
-2.40694357725971,5.41660043248356,0.019
-2.46654926869506,5.52734977186765,0.02
-2.52013772860103,5.63638516101633,0.021
-2.56787974162619,5.74384432685103,0.022
-2.60982586598151,5.84961976285218,0.023
-2.64601939496316,5.95391268449228,0.024
-2.67677335576497,6.05673049997256,0.025
-2.70237550356082,6.15812712757693,0.026
-2.72301242710231,6.25822142069455,0.027
-2.73903303721002,6.35697783131538,0.028
-2.75079275208574,6.45462548133564,0.029
-2.75861189950635,6.55111752711158,0.03
-2.76295058709179,6.64666524703602,0.031
-2.76433782538359,6.74132244955093,0.032
-2.76310705212777,6.83515685068021,0.033
-2.7597224792068,6.92829561074829,0.034
-2.75464565536376,7.02080863316723,0.035
-2.74823673068594,7.11273773844803,0.036
-2.7408656495243,7.20404507456477,0.037
-2.73300097280949,7.29481389747398,0.038
-2.72516109866227,7.3850739766531,0.039
-2.71757673934114,7.47477218523841,0.04
-2.71059334334507,7.56396519206723,0.041
-2.70477544244255,7.65254756017227,0.042
-2.70049052526978,7.74063927208231,0.043
-2.69799953290676,7.82830770285641,0.044
-2.69758814727008,7.91539036515546,0.045
-2.69963595997227,8.00199264819475,0.046
-2.70450881234626,8.08802852688578,0.047
-2.71246725811321,8.17350361988693,0.048
-2.72364164920622,8.2585121347663,0.049
-2.73814500254791,8.34287638342739,0.05
-2.75620358479689,8.42649296383175,0.051
-2.77799224156197,8.50923396693656,0.052
-2.8035334615056,8.5911415592896,0.053
-2.83287962189041,8.67228771055548,0.054
-2.86613551445565,8.75234917083565,0.055
-2.90339145863142,8.8313813356924,0.056
-2.9445776848629,8.90929608659499,0.057
-2.98944850853028,8.98585150594177,0.058
-3.03800737490046,9.06110846551308,0.059
-3.09034978964371,9.13484986513974,0.06
-3.14629916316254,9.20702912073158,0.061
-3.20546606898727,9.27754847324639,0.062
-3.26778364164512,9.34632295445887,0.063
-3.33328926253062,9.41330265746141,0.064
-3.40162197244245,9.47844912474737,0.065
-3.47244640916788,9.54154430443706,0.066
-3.54570511153089,9.60259318876133,0.067
-3.62126363820063,9.66152393070567,0.068
-3.69861847633179,9.71808786606841,0.069
-3.77750440777142,9.77215528773196,0.07
-3.85783052634108,9.8236733738815,0.071
-3.93901027522617,9.87250667586406,0.072
-4.02065494362854,9.91836568703011,0.073
-4.10262364921648,9.96124582746313,0.074
-4.18452571978068,10.0009883990794,0.075
-4.26587745599908,10.0374531722028,0.076
-4.34653449538402,10.070490813936,0.077
-4.42608271240039,10.100017838744,0.078
-4.50402370905893,10.1258987739833,0.079
-4.58023164034931,10.1479264848863,0.08
-4.65443513754567,10.1661539835795,0.081
-4.72617473257983,10.1803273318939,0.082
-4.79523955628639,10.1903590644256,0.083
-4.86146812314221,10.196264255583,0.084
-4.92446499480966,10.1978322154519,0.085
-4.98405740456005,10.1950373676425,0.086
-5.04010340802679,10.187984247564,0.087
-5.09240172412702,10.1766049812772,0.088
-5.14073157933199,10.1607564602044,0.089
-5.18508553510412,10.1405783543543,0.09
-5.22524743536029,10.1158957971411,0.091
-5.2610449746238,10.0868871149181,0.092
-5.29250530692301,10.0536213152029,0.093
-5.31951048552796,10.0159935424083,0.094
-5.34209164421148,9.9742174427923,0.095
-5.36011946274152,9.92831774545335,0.096
-5.37363344764634,9.87831191322672,0.097
-5.38274276192063,9.82440127780263,0.098
-5.38736728295622,9.76662135789886,0.099
-5.38757153642169,9.70503810106041,0.1
-5.38342048736989,9.63984210150453,0.101
-5.37498588757056,9.57113141279213,0.102
-5.36242252185927,9.49904732416662,0.103
-5.34582578687003,9.42377484288663,0.104
-5.32525247252411,9.34549801715658,0.105
-5.30074406742555,9.26427470162916,0.106
-5.27249303741854,9.1802947103132,0.107
-5.24066714518443,9.09371963533956,0.108
-5.20532716303809,9.00459589413222,0.109
-5.16671560550491,8.9131759805867,0.11
-5.12493122199403,8.8195486743924,0.111
-5.08021041417724,8.72394616646761,0.112
-5.0327527642181,8.62666979469187,0.113
-4.98270699755547,8.5277964994893,0.114
-4.93037310842868,8.42759580324405,0.115
-4.87595523956679,8.32617401866274,0.116
-4.81981503741834,8.22383200868968,0.117
-4.76212511451035,8.12079495835088,0.118
-4.70312506155864,8.01727989249898,0.119
-4.64310228583992,7.91351212314698,0.12
-4.58230059281792,7.80964308980209,0.121
-4.52098032219586,7.70581125057423,0.122
-4.45923369232496,7.60218390907616,0.123
-4.397317880984,7.4989636948024,0.124
-4.33548242384723,7.39625964096326,0.125
-4.27383573043736,7.29429678744544,0.126
-4.21255159055462,7.1932772247123,0.127
-4.15176666126747,7.09331070540983,0.128
-4.09167567452016,6.99471805528287,0.129
-4.03248184871874,6.89754456431561,0.13
-3.9742294128937,6.80196001521553,0.131
-3.9170201093634,6.70811761850093,0.132
-3.8609978926942,6.61617738832968,0.133
-3.80626352555326,6.52621825761577,0.134
-3.75288451218555,6.43838667320269,0.135
-3.70103232219955,6.35284390874281,0.136
-3.65081840933471,6.26968167504173,0.137
-3.60229987807926,6.18904288508686,0.138
-3.55562097217433,6.1110239203,0.139
-3.51081683800954,6.03569257626787,0.14
-3.46799459907396,5.96319303762276,0.141
-3.42728783746066,5.89352328016909,0.142
-3.38869739763273,5.82681601631038,0.143
-3.35231520653653,5.76302081940861,0.144
-3.31818002472481,5.70215117325797,0.145
-3.28629998098328,5.64431358213008,0.146
-3.25678538674717,5.58944450913324,0.147
-3.2295781744573,5.53756776936254,0.148
-3.20463876234249,5.48854440495516,0.149
-3.18203321771213,5.44229854990852,0.15
-3.16178264224023,5.39886220504183,0.151
-3.14381749354096,5.358095300037,0.152
-3.12808499102292,5.31998324910888,0.153
-3.11455032462249,5.28439439923131,0.154
-3.1031605956126,5.25103814637802,0.155
-3.09382931212745,5.22000140425652,0.156
-3.08644049356183,5.19098260653435,0.157
-3.08090245340259,5.16383645449577,0.158
-3.07721812472531,5.13856035989874,0.159
-3.07527460656669,5.11481254554175,0.16
-3.07487618588228,5.09256981610539,0.161
-3.0758972439445,5.07154819838405,0.162
-3.07836728595095,5.0516138934187,0.163
-3.08211296512486,5.03254459702055,0.164
-3.08690856332782,5.01426644552829,0.165
-3.09280307300254,4.99650841159193,0.166
-3.09970203351685,4.97918657385795,0.167
-3.10736961729374,4.96207170610247,0.168
-3.11560003983345,4.94497066958802,0.169
-3.12443507094563,4.92782914832422,0.17
-3.133756281518,4.91047551220453,0.171
-3.14331776628866,4.89273341208986,0.172
-3.15319572372934,4.87450219523206,0.173
-3.16327726582544,4.85572122058191,0.174
-3.17333118506611,4.83626707483508,0.175
-3.18329578262882,4.81595944974346,0.176
-3.19314666776762,4.79479488711224,0.177
-3.20273037851538,4.77265762958981,0.178
-3.21205200825574,4.74945785242466,0.179
-3.22107184251218,4.72516707260023,0.18
-3.22962474788576,4.69973831511158,0.181
-3.23765764560207,4.67308854306806,0.182
-3.24522217715174,4.64529017503733,0.183
-3.25218712571716,4.61630180219783,0.184
-3.25848252234563,4.58611490024992,0.185
-3.26415255556187,4.55475033089473,0.186
-3.26911341104269,4.52218281851416,0.187
-3.27327505642023,4.48837642802203,0.188
-3.27661191561034,4.45332773040556,0.189
-3.27912062018962,4.41708939603464,0.19
-3.28068524428006,4.37960197728241,0.191
-3.28128377980439,4.34100352386555,0.192
-3.28093447373966,4.30116912073852,0.193
-3.27952041580652,4.2600779597312,0.194
-3.27698494856117,4.21785889150767,0.195
-3.27328129928502,4.17439431091222,0.196
-3.26835010144608,4.12968195605681,0.197
-3.2620939601422,4.08386047057756,0.198
-3.25434237003082,4.03681912651205,0.199
-3.24516213594096,3.98860957347296,0.2
-3.23445265300811,3.9392136184526,0.201
-3.22208016705008,3.88860226962387,0.202
-3.20800653678499,3.83676140930608,0.203
-3.19217427999822,3.78366908341627,0.204
-3.17449120007559,3.7293400976211,0.205
-3.15490426518049,3.67368181933557,0.206
-3.13339443106216,3.6167761958493,0.207
-3.10993064089585,3.55855857661843,0.208
-3.08443574888612,3.49905578151779,0.209
-3.05687154305824,3.43832317355663,0.21
-3.02712219621346,3.37629177559283,0.211
-2.99526725150613,3.3129934262063,0.212
-2.96128173144715,3.24838174051084,0.213
-2.92507045924267,3.18236425820977,0.214
-2.88661993838749,3.1150570011836,0.215
-2.84587166934622,3.04636280116443,0.216
-2.80286650955448,2.97637734437177,0.217
-2.7575081428725,2.90496884819677,0.218
-2.70976913555788,2.83219239816198,0.219
-2.65973969638876,2.75797745936726,0.22
-2.60729838909063,2.68233465189517,0.221
-2.55248952948646,2.60529621606401,0.222
-2.49523914320062,2.52693692683438,0.223
-2.43567033679674,2.44726282128603,0.224
-2.37375080781176,2.36629958287146,0.225
-2.3093733778537,2.2840562751465,0.226
-2.24267650688435,2.20053599494506,0.227
-2.17363914169144,2.11573271057516,0.228
-2.10233207724916,2.02976097962024,0.229
-2.02876656039677,1.942553781861,0.23
-1.95291494332636,1.85422750103506,0.231
-1.87495021974231,1.76483192121164,0.232
-1.79492400042143,1.67442116988456,0.233
-1.7129315589723,1.58306632347382,0.234
-1.62906471249423,1.49091632721785,0.235
-1.54344438334734,1.39802907636702,0.236
-1.45618210523873,1.3045425845254,0.237
-1.36740892282205,1.21061889469749,0.238
-1.27729605293377,1.11637090824059,0.239
-1.18594069370753,1.02189751383755,0.24
-1.09352321243973,0.927370011285705,0.241
-1.00023484251519,0.832841646022869,0.242
-0.906162501674541,0.738571290780522,0.243
-0.811538946272567,0.644731466635347,0.244
-0.716538942120557,0.551505520088557,0.245
-0.621307058823356,0.459090857147847,0.246
-0.526056470143631,0.36765803778063,0.247
-0.430874059990533,0.277393158440854,0.248
-0.336037406623722,0.188532203182123,0.249
-0.241721663174418,0.101289708932337,0.25
-0.148078086013215,0.0158358480577642,0.251
-0.0553214167045418,-0.0676214971039787,0.252
0.0363238773950468,-0.14884587658519,0.253
0.126663376933844,-0.227644843830677,0.254
0.215580597111826,-0.30388019838325,0.255
0.302822792248571,-0.377257348802507,0.256
0.38824177228526,-0.44773415909753,0.257
0.471630533251176,-0.515045560314356,0.258
0.552879111383816,-0.579013908824324,0.259
0.63181690390956,-0.639614214053545,0.26
0.708304743160441,-0.696520336934918,0.261
0.782239305776795,-0.749760599197057,0.262
0.853399213526981,-0.799187166351807,0.263
0.921722908483849,-0.844715592322176,0.264
0.987094802155939,-0.886217724047996,0.265
1.04938458131611,-0.923803661869332,0.266
1.10865133168744,-0.957303344195624,0.267
1.16477245746023,-0.986683348222702,0.268
1.21767117002571,-1.01196790584021,0.269
1.26728409123668,-1.03308451205274,0.27
1.31356298229963,-1.05014698201907,0.271
1.35647820779416,-1.0631409131926,0.272
1.39599229841692,-1.07211414230764,0.273
1.4321362856916,-1.07714516407188,0.274
1.46484959133959,-1.07827221242298,0.275
1.4940974065242,-1.07558567507226,0.276
1.51991451326723,-1.06915499226761,0.277
1.54228988798781,-1.05915744325653,0.278
1.56130763181926,-1.04564426183049,0.279
1.57703139740576,-1.02873353473534,0.28
1.58944539975629,-1.00856469643059,0.281
1.59861622892486,-0.985271707687219,0.282
1.60466150991073,-0.959007080326198,0.283
1.60768644780911,-0.929984258934308,0.284
1.60773377537689,-0.898360713304151,0.285
1.60492939642348,-0.864397693831927,0.286
1.59939711806549,-0.828269863021335,0.287
1.59127388818659,-0.790175917368995,0.288
1.58070593059698,-0.750299186060247,0.289
1.56777248759636,-0.708826905123623,0.29
1.55264794582892,-0.665966943857626,0.291
1.53549251042177,-0.621938471253528,0.292
1.51647888976807,-0.576924452087565,0.293
1.49579282771964,-0.531090372458204,0.294
1.47355370497831,-0.484590959010725,0.295
1.44992063402594,-0.437651799866255,0.296
1.42511860570995,-0.390428452040996,0.297
1.39923289830855,-0.343023249572234,0.298
1.37244907381124,-0.295707268432974,0.299
1.34483026980305,-0.248472632389046,0.3
1.31664842966952,-0.201541652871343,0.301
1.28804670499614,-0.154935409385525,0.302
1.25912962261404,-0.108748026261054,0.303
1.23004868354776,-0.0630541241687542,0.304
1.20096676047074,-0.0178735657014272,0.305
1.17207878074739,0.0266438393997245,0.306
1.14349125099732,0.0705847765608043,0.307
1.11538585364447,0.113802180755021,0.308
1.08793156598399,0.156348460287988,0.309
1.0612364879004,0.198195176874888,0.31
1.03548237807381,0.239300848550779,0.311
1.01077609151143,0.279665645319341,0.312
0.987317340294199,0.319297125713929,0.313
0.965222823595373,0.358307500634285,0.314
0.944576165055362,0.396673831792238,0.315
0.925476548851485,0.43446066152502,0.316
0.907981445436935,0.471780024737121,0.317
0.892217169105754,0.508578660451251,0.318
0.878189915332655,0.545062243765305,0.319
0.865972144255898,0.581165890979193,0.32
0.85564415808885,0.617056946856047,0.321
0.847172349472987,0.652778193388964,0.322
0.840634112857668,0.688449137269501,0.323
0.836051541174265,0.724133849939602,0.324
0.833532320584716,0.759906932142774,0.325
0.833030883485706,0.795862315677193,0.326
0.834462446108211,0.832098738675832,0.327
0.837891143946134,0.868704240632661,0.328
0.843299599363603,0.905755667526786,0.329
0.850725072881745,0.94324652790354,0.33
0.860163805483045,0.981330647766681,0.331
0.871561672318076,1.01997049848925,0.332
0.88491742017975,1.05929292303802,0.333
0.900194165971143,1.09928274211339,0.334
0.917417806672025,1.1400423077627,0.335
0.936507579702452,1.1815143321211,0.336
0.957412154387073,1.22372672998023,0.337
0.980048461840582,1.26669601274945,0.338
1.00430051659557,1.31035675474786,0.339
1.03012815908121,1.35480015890071,0.34
1.05737624895014,1.40009235041302,0.341
1.08595027138879,1.44622939267805,0.342
1.1156870379229,1.49326272996086,0.343
1.14642686113696,1.54114639412927,0.344
1.17808675192241,1.58985510340849,0.345
1.21048762865706,1.63932628275574,0.346
1.24335462346262,1.68954594137778,0.347
1.27643082422006,1.74052217118621,0.348
1.30938586646446,1.79223030877496,0.349
1.3421063578032,1.84460583530334,0.35
1.37429223126675,1.89768781157358,0.351
1.4056236727626,1.95148091956333,0.352
1.43578018490439,2.00592553798598,0.353
1.4644540963077,2.06099092257033,0.354
1.49150775245011,2.11661204953013,0.355
1.51642358204585,2.17288407414399,0.356
1.53894387667563,2.22967671870287,0.357
1.55885637726623,2.28705230464415,0.358
1.57597929820987,2.34483729560063,0.359
1.58986819409585,2.40291083197513,0.36
1.60025032386619,2.46133050109604,0.361
1.60702575681286,2.5198458853709,0.362
1.60998813346125,2.57845964186372,0.363
1.6088858000077,2.63721082430669,0.364
1.60352262567822,2.69599446824564,0.365
1.59381703709114,2.75467722588512,0.366
1.57964972461099,2.81331591083435,0.367
1.56074911377055,2.8717344648277,0.368
1.53708115077581,2.92984991776965,0.369
1.50858468487419,2.98760623040333,0.37
1.47513108724749,3.04487599910475,0.371
1.43667607282687,3.10184524292271,0.372
1.39329232816079,3.15824551477299,0.373
1.34493388291155,3.21410944946526,0.374
1.29158879459058,3.26946749829845,0.375
1.2333879577566,3.32413898205013,0.376
1.17037563329831,3.37813744564761,0.377
1.10253825679403,3.43150596318168,0.378
1.03002696028977,3.48419766067401,0.379
0.952986462252451,3.53613672082682,0.38
0.871481619511626,3.58737294302889,0.381
0.785801660432809,3.63789587265228,0.382
0.696120072835786,3.68764880516052,0.383
0.602538821746165,3.73674529147845,0.384
0.505313626913828,3.78519106858416,0.385
0.404774389376574,3.83298059726037,0.386
0.301089387413454,3.88020357122532,0.387
0.194594755723204,3.92700615391223,0.388
0.0855950590161283,3.97340949546079,0.389
-0.0256635020329891,4.01944395439068,0.39
-0.138801540063466,4.06523705871255,0.391
-0.253410046312637,4.11077684188053,0.392
-0.369233052367172,4.15627739137861,0.393
-0.48589331176381,4.20163681030822,0.394
-0.603004881543906,4.24694866305485,0.395
-0.720207426092942,4.29235547887115,0.396
-0.837116479967713,4.33783111884984,0.397
-0.95337740025552,4.38350325917069,0.398
-1.06855048648376,4.42944442708387,0.399
-1.18235618058036,4.47571867901191,0.4
-1.29437998178056,4.52229081422973,0.401
-1.40434881445973,4.56933338830882,0.402
-1.51192929606618,4.61680362492314,0.403
-1.61684678375827,4.66478355755402,0.404
-1.71877368077825,4.71332100555082,0.405
-1.81741127415161,4.76243723804128,0.406
-1.91265792578631,4.81224978924259,0.407
-2.00423778749206,4.8627681279092,0.408
-2.09197025383595,4.91410985496589,0.409
-2.17563785643463,4.96624587679596,0.41
-2.25507710938943,5.01929820011412,0.411
-2.33020483378144,5.07328059694049,0.412
-2.4009095755354,5.12832594807408,0.413
-2.46704097118306,5.18444746792487,0.414
-2.52846288712221,5.24156189549634,0.415
-2.5851444600004,5.29988421327927,0.416
-2.63703722457052,5.35930503222406,0.417
-2.68407940744223,5.41983439625926,0.418
-2.72623587171592,5.48154790904535,0.419
-2.76349185348172,5.54437624152211,0.42
-2.79595454473895,5.60847885103548,0.421
-2.82361820194763,5.67377936976917,0.422
-2.84659517067849,5.74039422326225,0.423
-2.86507292087418,5.80828342255972,0.424
-2.87926560178217,5.87749716546277,0.425
-2.88950728032035,5.94807358225783,0.426
-2.89596999259229,6.02004364872776,0.427
-2.89890024700381,6.09339295999922,0.428
-2.89861515832136,6.16814851871391,0.429
-2.89549329812515,6.24430622204465,0.43
-2.88994008074307,6.32196156039793,0.431
-2.88236018720735,6.40100885080498,0.432
-2.87316490496749,6.48161934864178,0.433
-2.86270065229315,6.56371794862541,0.434
-2.85139401661192,6.64730108455525,0.435
-2.83971389996529,6.73230757581279,0.436
-2.8279904976361,6.8187506607471,0.437
-2.81659796173329,6.90660330501593,0.438
-2.80585568996722,6.99573615463984,0.439
-2.79608004178832,7.08622042318154,0.44
-2.78769251916775,7.17781372658971,0.441
-2.7809094551507,7.27044771021735,0.442
-2.77607692697931,7.36399914273925,0.443
-2.77342657179965,7.45833616719639,0.444
-2.773247912705,7.55331511111985,0.445
-2.7758490843128,7.64883578448966,0.446
-2.78144948982788,7.74477261826823,0.447
-2.79016526577572,7.84099425869895,0.448
-2.80206371635088,7.93728196269005,0.449
-2.81718024782115,8.0334979558017,0.45
-2.83573151666691,8.12952011043034,0.451
-2.85773732084444,8.22507955419407,0.452
-2.88320311371087,8.32001154892994,0.453
-2.91203065217304,8.41412025195643,0.454
-2.94421623005725,8.50720697153761,0.455
-2.97989837927191,8.59915166755576,0.456
-3.01878103617337,8.68960582894122,0.457
-3.06074170948302,8.7785426899642,0.458
-3.10589903411816,8.86567614427959,0.459
-3.15418342751477,8.95099461458305,0.46
-3.20528905002557,9.03443612968975,0.461
-3.25901552616299,9.11571614984091,0.462
-3.31547170801682,9.19485988527647,0.463
-3.3745803437698,9.27173262082336,0.464
-3.43597709376842,9.34605769239567,0.465
-3.4995190052427,9.41781502377322,0.466
-3.56522288541684,9.48692109685095,0.467
-3.63289205096159,9.55320895677949,0.468
-3.70214092588332,9.61663762652266,0.469
-3.77289047142026,9.67707686936727,0.47
-3.844975953131,9.73459312962163,0.471
-3.91806518110594,9.78909793520192,0.472
-3.99192194657901,9.84021954258522,0.473
-4.0664493811197,9.88818275876852,0.474
-4.14135141127637,9.9327794938454,0.475
-4.21631413297477,9.97379586765386,0.476
