Drag (N),Lift (N),Time (s)
-0.556,4.394,0
-0.568093089413055,4.38598656182396,0.001
-0.580136677544914,4.37798951048324,0.002
-0.592116908709136,4.37003009560401,0.003
-0.603968342444203,4.36217750155708,0.004
-0.61567324491992,4.35441857854437,0.005
-0.62722449957703,4.34675426183754,0.006
-0.638596970760582,4.33920159166161,0.007
-0.64978560529512,4.33176657197186,0.008
-0.66075368581731,4.32453585613233,0.009
-0.671430696045554,4.31744673709873,0.01
-0.681825222617611,4.31053445263078,0.011
-0.69194204214751,4.30384057449308,0.012
-0.701750081406045,4.29739592068805,0.013
-0.711223253394133,4.29115927955756,0.014
-0.720347222245471,4.28510188043889,0.015
-0.729114620547292,4.2792587524392,0.016
-0.737509828771199,4.27361535166734,0.017
-0.745560806818285,4.26822071887721,0.018
-0.753234951537821,4.26306093563789,0.019
-0.760491491862939,4.25819654827174,0.02
-0.767379288825466,4.25357687563419,0.021
-0.773936101828148,4.24921350577514,0.022
-0.780190748829764,4.24514235313316,0.023
-0.786108547962038,4.24133755070212,0.024
-0.791706816554915,4.23778744575193,0.025
-0.797000713105242,4.23450300431837,0.026
-0.802068743384387,4.23151670090366,0.027
-0.806879675968081,4.22881267560096,0.028
-0.811448430361328,4.22640395958741,0.029
-0.815801670282052,4.22426403213944,0.03
-0.820011211793669,4.22240509752706,0.031
-0.824091365470628,4.22081532468454,0.032
-0.828039573543714,4.21948905255246,0.033
-0.831855662649607,4.21841476333011,0.034
-0.835574507520721,4.21758849964605,0.035
-0.839269310936839,4.21704209716034,0.036
-0.842925670680234,4.21676409523705,0.037
-0.846550666884,4.2167082751682,0.038
-0.850208719632626,4.21685758460706,0.039
-0.853930933746454,4.21722697104228,0.04
-0.857705760175357,4.21781612031652,0.041
-0.861536393096754,4.21860196018057,0.042
-0.865448224625919,4.21953536138087,0.043
-0.869526650788969,4.22062434384196,0.044
-0.873749728719874,4.22190774957013,0.045
-0.878091123530709,4.22332096449334,0.046
-0.882580407248581,4.22484169081423,0.047
-0.887262290165982,4.22646480766672,0.048
-0.892103148332857,4.22817929856885,0.049
-0.897132899538631,4.22995523565879,0.05
-0.90235724743513,4.2317584242332,0.051
-0.907782163224652,4.23358289377373,0.052
-0.913423657904333,4.23544361598898,0.053
-0.91922666437222,4.23729677760507,0.054
-0.92523298927271,4.23914355044257,0.055
-0.931435055596114,4.24098482562056,0.056
-0.9377999337232,4.24280324543721,0.057
-0.944358843551172,4.24458754806265,0.058
-0.95114778790018,4.24630980095951,0.059
-0.958134250060584,4.24794958124836,0.06
-0.965272375675996,4.24952811150001,0.061
-0.972568617988385,4.25103177865835,0.062
-0.980047520398393,4.25244416288602,0.063
-0.987682945729586,4.25376697945551,0.064
-0.995411122842288,4.25499473491277,0.065
-1.00323704006247,4.25613289075272,0.066
-1.01119545940997,4.25718451227357,0.067
-1.0191861145508,4.2581125975615,0.068
-1.02720874970772,4.25889192856991,0.069
-1.03526113733725,4.25949433623505,0.07
-1.04334289720939,4.25993671415527,0.071
-1.05141652847842,4.2602408779877,0.072
-1.05938382383706,4.26035938481746,0.073
-1.06727563895559,4.26031911785266,0.074
-1.07509414717973,4.26011971002487,0.075
-1.08281091609674,4.25975125545638,0.076
-1.09035370182955,4.25921072353858,0.077
-1.0977503475078,4.25850642506719,0.078
-1.10498621791008,4.2576647744503,0.079
-1.11204028306641,4.25669438165693,0.08
-1.11888493264969,4.25558826997908,0.081
-1.12551259744198,4.25435380308336,0.082
-1.13189066182365,4.25303531858556,0.083
-1.13799605561189,4.25157369303751,0.084
-1.14386534000823,4.25002934582244,0.085
-1.14947965193899,4.24838287324217,0.086
-1.15481054293654,4.24664078777025,0.087
-1.15984590963835,4.2447974696951,0.088
-1.16461354700078,4.24290900717868,0.089
-1.16909122280325,4.24101319432101,0.09
-1.17328484847056,4.23911017874836,0.091
-1.17716008060035,4.23720448062905,0.092
-1.18072408142892,4.23528366365775,0.093
-1.18403663811441,4.23337766491925,0.094
-1.18706869349272,4.23141735403114,0.095
-1.18985367735195,4.22944719324849,0.096
-1.19239365683464,4.22747732138533,0.097
-1.19470884495452,4.22549563483925,0.098
-1.19680730146718,4.22354407030529,0.099
-1.19871885100241,4.22163209845632,0.1
-1.20044256792726,4.21976572053751,0.101
-1.20200055609918,4.21793128919155,0.102
-1.20343809957668,4.2161675282991,0.103
-1.20473708893088,4.21448692562169,0.104
-1.20592267695708,4.21282981200542,0.105
-1.20699455221124,4.21122690252768,0.106
-1.20794035537166,4.20971975935944,0.107
-1.20876336961619,4.20830828165553,0.108
-1.2094375826667,4.20697286390476,0.109
-1.2100254654422,4.20571668546521,0.11
-1.21052423611869,4.20461658846086,0.111
-1.21091299716801,4.20363562167611,0.112
-1.21121443608895,4.20275127728012,0.113
-1.21146214942398,4.20193810097755,0.114
-1.21169364079862,4.20125367291392,0.115
-1.21188835772217,4.20068618145738,0.116
-1.21207413448805,4.2002360483016,0.117
-1.21228562290443,4.19993894390631,0.118
-1.21252540083803,4.19973687019935,0.119
-1.21281751268844,4.19961241999632,0.12
-1.21320905919723,4.19955038412088,0.121
-1.21369041298116,4.19958831669034,0.122
-1.21422239348428,4.19972718802399,0.123
-1.21479130088331,4.19989661826526,0.124
-1.2154773340889,4.20014023624038,0.125
-1.21623620413154,4.2004558386707,0.126
-1.21706545290295,4.20080997240178,0.127
-1.21794494382916,4.2011493293293,0.128
-1.21892277015537,4.20149434524559,0.129
-1.21999653599368,4.20182034757361,0.13
-1.2211051802212,4.20212056297168,0.131
-1.22227381352088,4.20239490036463,0.132
-1.2235225723345,4.202630747252,0.133
-1.22486397649465,4.20280294164154,0.134
-1.22630236315292,4.20291589585235,0.135
-1.22784671688749,4.20296986938344,0.136
-1.22948668322715,4.20295410750375,0.137
-1.23124892157807,4.2028434805271,0.138
-1.23314142393357,4.20265694422528,0.139
-1.23516603601074,4.20239486058091,0.14
-1.23732791743656,4.20204887176663,0.141
-1.23962711688705,4.2016122856251,0.142
-1.24208468687101,4.20109940843439,0.143
-1.2447294627115,4.20051571216471,0.144
-1.24751661202114,4.19986551672926,0.145
-1.25046408455767,4.19910367121668,0.146
-1.25358474010446,4.19827438117462,0.147
-1.256893157435,4.19739129641937,0.148
-1.26036389818,4.19644846275979,0.149
-1.26398972160579,4.19544763878925,0.15
-1.26780305958026,4.19442423164431,0.151
-1.27181276919745,4.19336038551215,0.152
-1.27602479290259,4.19225501440909,0.153
-1.28040871988164,4.19111075577246,0.154
-1.2849926419436,4.18996547120296,0.155
-1.28977421533898,4.18879362263901,0.156
-1.2947487351878,4.18759236804252,0.157
-1.29991296088277,4.18639627053078,0.158
-1.30524645588736,4.18522270012995,0.159
-1.31073856598152,4.18406385080651,0.16
-1.31637938107488,4.18290873806282,0.161
-1.32216539414351,4.18176859021225,0.162
-1.32808115730028,4.18064100592982,0.163
-1.33411261891515,4.17953260307812,0.164
-1.34027247680598,4.17842779250724,0.165
-1.34656860199413,4.17732844119869,0.166
-1.3529856684854,4.17625719544554,0.167
-1.35947169951513,4.17521112146065,0.168
-1.36610273076367,4.17420747527828,0.169
-1.37282523443291,4.17325899296674,0.17
-1.37963354888518,4.17239725784774,0.171
-1.38652277726391,4.17162378082744,0.172
-1.39351936912241,4.17091814633902,0.173
-1.4006485315731,4.17031640441501,0.174
-1.40787168258435,4.16980798181705,0.175
-1.41516023513776,4.1693744620512,0.176
-1.42253720363221,4.16903822828045,0.177
-1.4300301365141,4.16878610332218,0.178
-1.43755650907974,4.16860504291629,0.179
-1.44513053935899,4.16847870231097,0.18
-1.45272663041035,4.16839790360121,0.181
-1.46034837194926,4.16834368001847,0.182
-1.46796971360891,4.16832849809322,0.183
-1.47555489651126,4.1683094797224,0.184
-1.48312977568525,4.16831242362965,0.185
-1.49064555839464,4.16829307887873,0.186
-1.49808758843431,4.16828069963207,0.187
-1.50545803727339,4.16822316823738,0.188
-1.51275780447916,4.16815347061763,0.189
-1.51994260765195,4.16803188634168,0.19
-1.52703956242064,4.16784532975848,0.191
-1.53403436694531,4.16760683678011,0.192
-1.54093467340578,4.16730532063807,0.193
-1.54773172797123,4.16696521128056,0.194
-1.55440575168536,4.16656928598974,0.195
-1.56099897953199,4.16616668364156,0.196
-1.56746668942928,4.16571560450409,0.197
-1.57383159502772,4.16522163634827,0.198
-1.58005891118915,4.16470409088859,0.199
-1.58615280598994,4.16413966214119,0.2
-1.5921043598543,4.16353174789759,0.201
-1.59792552140099,4.16286086375383,0.202
-1.60361896345343,4.16214896332507,0.203
-1.60914492774346,4.16136402827283,0.204
-1.61453238771194,4.16052522330469,0.205
-1.61977362976524,4.15964947455971,0.206
-1.62489373840753,4.15872549110486,0.207
-1.62990837422911,4.15774505997662,0.208
-1.63482037098674,4.15670481263518,0.209
-1.63965861128186,4.15562883365092,0.21
-1.64438915470581,4.15448776245336,0.211
-1.64906491939055,4.15327386433247,0.212
-1.65368946671127,4.15202193041853,0.213
-1.65825501983535,4.15073200543114,0.214
-1.66276900816323,4.14944510159198,0.215
-1.66721465080661,4.14811486140923,0.216
-1.6716263599752,4.14680701444637,0.217
-1.6760012795416,4.14547530617619,0.218
-1.68035066152755,4.14412677937688,0.219
-1.68465162523748,4.1428045123895,0.22
-1.68891053046634,4.14151896500106,0.221
-1.69313040292757,4.14027674021875,0.222
-1.69730530222325,4.13907562650523,0.223
-1.70148053760704,4.1379045593689,0.224
-1.70565800373611,4.13682251153242,0.225
-1.70981124606658,4.13579931599432,0.226
-1.71399152302321,4.1348301687389,0.227
-1.71819771481042,4.13392769199937,0.228
-1.72243391392843,4.13312329763963,0.229
-1.7266923524824,4.13240662000726,0.23
-1.73096521458391,4.13178666737562,0.231
-1.73530980420543,4.13125057592053,0.232
-1.73970154334155,4.13080212637542,0.233
-1.74411473663009,4.13043954630081,0.234
-1.74854585799326,4.13017087660832,0.235
-1.75299594902214,4.12997505925512,0.236
-1.75746801917124,4.12984918682563,0.237
-1.76195115386485,4.12976807347779,0.238
-1.76642347031027,4.12974147114107,0.239
-1.77087883390582,4.12974833826766,0.24
-1.77530934742937,4.1297883842439,0.241
-1.77970990481102,4.12984367595648,0.242
-1.78407428036219,4.12989506111153,0.243
-1.7883826925136,4.12993624505676,0.244
-1.79262089988779,4.12996091840629,0.245
-1.79679778620214,4.12995598068337,0.246
-1.80089573188451,4.12993089803236,0.247
-1.80492206482864,4.12986725028056,0.248
-1.80886973558402,4.12974665000982,0.249
-1.81273545058973,4.12957360097201,0.25
-1.81653620626782,4.12933932908162,0.251
-1.82024032465247,4.12902004779693,0.252
-1.82383748796005,4.1286365425405,0.253
-1.82732854712791,4.12817490914634,0.254
-1.83072511113023,4.12764601458074,0.255
-1.83401516926343,4.12703509387264,0.256
-1.8371977188148,4.12635000515065,0.257
-1.84026622023026,4.125586383125,0.258
-1.84324160850475,4.12471324637064,0.259
-1.84612286183685,4.12372544537092,0.26
-1.84889760502658,4.12263388854237,0.261
-1.85156957529754,4.12145936421581,0.262
-1.85416016063457,4.12019659557664,0.263
-1.85666829426361,4.1188492006619,0.264
-1.85910701643507,4.1174158243624,0.265
-1.86144678051371,4.11590186054295,0.266
-1.86369624488881,4.11430632945713,0.267
-1.86585486779265,4.1126154282705,0.268
-1.86795350041114,4.11084136441185,0.269
-1.86995834233762,4.10899083201203,0.27
-1.87188095285652,4.10707276168025,0.271
-1.87373651361464,4.10510146293549,0.272
-1.87553085919588,4.10304790890704,0.273
-1.87724210950575,4.10093313550936,0.274
-1.8788705629375,4.09875008770799,0.275
-1.88041378702136,4.09651386454051,0.276
-1.88188944503346,4.09423687013311,0.277
-1.88328838726424,4.09189724411516,0.278
-1.88459214676599,4.08951779775373,0.279
-1.88584384915994,4.08711578266524,0.28
-1.88702726038591,4.08469719455998,0.281
-1.88817131387354,4.08227122121716,0.282
-1.88927409230806,4.07987865046513,0.283
-1.89034414288888,4.07749166179347,0.284
-1.89141389713313,4.07515130273871,0.285
-1.89246684800328,4.07284090874973,0.286
-1.89352986239776,4.07058654326755,0.287
-1.89461212798714,4.06838036716919,0.288
-1.89571948730842,4.0662572299736,0.289
-1.89686430332567,4.06419665403012,0.29
-1.89806874003311,4.06220935160755,0.291
-1.8993030114185,4.06030392203828,0.292
-1.90057259502141,4.05845877339561,0.293
-1.90187129534422,4.05668531554096,0.294
-1.9031887531423,4.05497110342551,0.295
-1.90451470049945,4.05333211300459,0.296
-1.90581897768624,4.05172997081704,0.297
-1.90711556431556,4.05018507082408,0.298
-1.90837536714669,4.0486966615695,0.299
-1.90960157029207,4.0472486684409,0.3
-1.91078755899782,4.04585146385763,0.301
-1.91194082318277,4.04447120223742,0.302
-1.91305027703794,4.04312127284528,0.303
-1.91410553774505,4.04180378040199,0.304
-1.91513248742903,4.04051451974812,0.305
-1.91612244670934,4.03923243040778,0.306
-1.91709005059574,4.0379613848561,0.307
-1.91801558555512,4.03671045886958,0.308
-1.91890006002667,4.03547933152687,0.309
-1.91975665269893,4.03428852769563,0.31
-1.92057438344551,4.03312066633249,0.311
-1.92136731027834,4.03199376707471,0.312
-1.92211039746602,4.03091657577938,0.313
-1.92281727541708,4.02987522084246,0.314
-1.92349038888698,4.02890108762336,0.315
-1.92411451877976,4.02796204359273,0.316
-1.92470383365233,4.02710172625228,0.317
-1.92525414182796,4.02627076997914,0.318
-1.92575744246429,4.02550544226138,0.319
-1.92619939620733,4.02482757976126,0.32
-1.92659074793328,4.02421697536175,0.321
-1.92692079070358,4.02367704853168,0.322
-1.92720087412949,4.02321435543752,0.323
-1.92743550645087,4.02283700715161,0.324
-1.92759782146466,4.02253543485948,0.325
-1.9277100127962,4.02230805685085,0.326
-1.9277820058042,4.02217187562073,0.327
-1.92779932204856,4.02212882083782,0.328
-1.9277789515697,4.02219656587973,0.329
-1.92771062542203,4.02237194451563,0.33
-1.92760485191968,4.02264742371826,0.331
-1.92748596172826,4.02304562423682,0.332
-1.92733411331122,4.02355870780315,0.333
-1.92715269000929,4.02418126759181,0.334
-1.92697369580027,4.0249161604392,0.335
-1.92680313074267,4.02574230384008,0.336
-1.92663846600475,4.02667603683408,0.337
-1.92646789695978,4.02772538290844,0.338
-1.92630239509273,4.02888641088646,0.339
-1.92615400185791,4.03017070169068,0.34
-1.9260371836878,4.03159229653767,0.341
-1.92593670291401,4.03313557612436,0.342
-1.92585015741351,4.03478843561221,0.343
-1.92579569635816,4.03655456694212,0.344
-1.92577622511957,4.03842686096684,0.345
-1.92579521840307,4.04040541485178,0.346
-1.92585316445282,4.04246529429318,0.347
-1.92596570710759,4.04459992908421,0.348
-1.92612111845746,4.04679787502076,0.349
-1.92630744703156,4.04906369726618,0.35
-1.92653215730723,4.051349411097,0.351
-1.92680407911241,4.05366473104453,0.352
-1.92713159178475,4.05601184065992,0.353
-1.92750074185689,4.05836519566603,0.354
-1.92789526176597,4.06072436060734,0.355
-1.92834002645202,4.06303948264899,0.356
-1.92884039633117,4.0653102537952,0.357
-1.92937143021975,4.06755380781141,0.358
-1.92993702638772,4.06971888206753,0.359
-1.93053022765741,4.07182184202244,0.36
-1.93117036563702,4.07387370379421,0.361
-1.93185811315331,4.07583347607482,0.362
-1.93258511499851,4.07769050477074,0.363
-1.93335719602808,4.07943483639191,0.364
-1.93418044877409,4.08105064645536,0.365
-1.93505264547241,4.08257172888628,0.366
-1.93598780150665,4.08399115438629,0.367
-1.93697965624251,4.08530910667811,0.368
-1.93804592824796,4.08654551047709,0.369
-1.93917596094464,4.08768937473677,0.37
-1.94036875215617,4.08874205329084,0.371
-1.94164081312652,4.08970233055012,0.372
-1.94295963591314,4.09055914803697,0.373
-1.9443257969051,4.09134693968371,0.374
-1.94574871052126,4.09205675148486,0.375
-1.94721863009407,4.09269581017816,0.376
-1.94873902346259,4.09325652792682,0.377
-1.95028581881924,4.09375599690787,0.378
-1.95184768330412,4.09420579760662,0.379
-1.95344063152031,4.09460076010208,0.38
-1.95503925944901,4.09495271701689,0.381
-1.95663725327813,4.09524510851558,0.382
-1.95823912845089,4.09549020876753,0.383
-1.95984694311768,4.09569200599806,0.384
-1.96142587389135,4.09584053040385,0.385
-1.962959495681,4.0959275816434,0.386
-1.9644531114052,4.09597467834155,0.387
-1.96588390698701,4.09595659416011,0.388
-1.96723844392217,4.09586167128701,0.389
-1.96850007019212,4.09573155437691,0.39
-1.96962684682159,4.09553875548998,0.391
-1.97061439671011,4.09530144620928,0.392
-1.97146884757577,4.0950221712492,0.393
-1.97217966327779,4.09467725978286,0.394
-1.9727557267929,4.09427084778553,0.395
-1.97317638585624,4.09381058458818,0.396
-1.9734407953845,4.09329734940807,0.397
-1.97355179349498,4.09276441597553,0.398
-1.97351290069468,4.09220614988781,0.399
-1.97332190279129,4.09162841421965,0.4
-1.97297730955382,4.0910614540258,0.401
-1.97245793220398,4.09047881999441,0.402
-1.97176085271319,4.08992238094392,0.403
-1.97090773268993,4.08939603237535,0.404
-1.96988411150408,4.08886146200261,0.405
-1.96867173471968,4.08835958493403,0.406
-1.96725900851746,4.08788646222587,0.407
-1.96564760023495,4.08744380942571,0.408
-1.96384656160669,4.08702465967128,0.409
-1.96185487040375,4.08662058127452,0.41
-1.95964586783348,4.08619766627079,0.411
-1.95722629849552,4.08580686282587,0.412
-1.95460340647541,4.08543982721657,0.413
-1.95177980737266,4.08505081528885,0.414
-1.94874485463148,4.08467928669872,0.415
-1.94549671887913,4.08426979427714,0.416
-1.94205641699479,4.08383811773195,0.417
-1.93843312079968,4.08338819997897,0.418
-1.93462627553748,4.08291435741117,0.419
-1.93064528167495,4.08243036665104,0.42
-1.92651113989452,4.08190849901642,0.421
-1.92225155705499,4.08136024583508,0.422
-1.91789007777417,4.08079688125318,0.423
-1.91342021372538,4.08021505061602,0.424
-1.90886767834591,4.07960330772887,0.425
-1.90426288294844,4.079007669604,0.426
-1.89960361485739,4.07842859137685,0.427
-1.89489652307472,4.07785096222887,0.428
-1.89017406230577,4.07729679839489,0.429
-1.88544563730875,4.07674959830034,0.43
-1.8807428736391,4.07621949770219,0.431
-1.8760815217409,4.07572529918334,0.432
-1.87145364277088,4.07526951696788,0.433
-1.8668871290093,4.07488493014264,0.434
-1.86239944418432,4.07458803484998,0.435
-1.85798684905663,4.07438952364905,0.436
-1.85365479493901,4.07431553787491,0.437
-1.84943021012478,4.0743623400584,0.438
-1.84532267300106,4.07454126911918,0.439
-1.84133861225447,4.07484853988857,0.44
-1.8374766620797,4.0752790112109,0.441
-1.83373787427045,4.07581730254073,0.442
-1.83014125782616,4.07647530000388,0.443
-1.82670227260964,4.07726034794733,0.444
-1.8234095809197,4.07819411375818,0.445
-1.82027090389141,4.07925511160084,0.446
-1.81728530927776,4.08045050641185,0.447
-1.81444255001675,4.0817926371994,0.448
-1.81172451286065,4.08326781590884,0.449
-1.80914437021649,4.08489150781798,0.45
-1.80671123407725,4.08665344252773,0.451
-1.80441398406976,4.08857884226055,0.452
-1.80221969412249,4.09064205574478,0.453
-1.80011479640579,4.09282367264225,0.454
-1.79811621293847,4.09511730184625,0.455
-1.79621597967444,4.09751550321087,0.456
-1.79437281818815,4.10005745364028,0.457
-1.79256724458284,4.10271290106292,0.458
-1.79081684463038,4.10545201918016,0.459
-1.78910343493935,4.10832925797283,0.46
-1.78741340103722,4.11128782354108,0.461
-1.78570273238929,4.11429463498793,0.462
-1.7839774970844,4.11740359427486,0.463
-1.78222364392515,4.12058115123638,0.464
-1.78041016725643,4.12382430397064,0.465
-1.77852052883075,4.12715903066286,0.466
-1.77652918062786,4.1304870122558,0.467
-1.77443563608359,4.13380051515776,0.468
-1.77223732638752,4.13710806902662,0.469
-1.76989734081892,4.14036346923637,0.47
-1.76740681168713,4.14358008601625,0.471
-1.76474639522888,4.14673748396783,0.472
-1.76190242448763,4.14979592060268,0.473
-1.75890686645437,4.15274456302497,0.474
-1.75573393365695,4.15557755013775,0.475
-1.75237682140884,4.15828784670876,0.476
-1.74883475495009,4.1608709169545,0.477
