Drag (N),Lift (N),Time (s)
1.549,-2.185,0
1.56174145396808,-2.18114803486898,0.001
1.57459349259174,-2.17725721198527,0.002
1.58769953028299,-2.17336615624875,0.003
1.60114344992419,-2.16944075127676,0.004
1.61501040506779,-2.165440157243,0.005
1.62943209561989,-2.1613158865682,0.006
1.64451867039709,-2.15706965158437,0.007
1.66029234587905,-2.15268253674908,0.008
1.6767681650512,-2.14806296950139,0.009
1.69414041207973,-2.14323061429625,0.01
1.71243341386637,-2.13816288831382,0.011
1.73166758435593,-2.13278708084141,0.012
1.75189033397202,-2.12702012259563,0.013
1.77312704716564,-2.1208600903319,0.014
1.79539650424948,-2.11426116046966,0.015
1.81869122817569,-2.10714881941585,0.016
1.84302363250351,-2.09955537470162,0.017
1.86843342808815,-2.09150974337983,0.018
1.89483354714106,-2.08297968550566,0.019
1.92218929595315,-2.07389665114356,0.02
1.95047159133288,-2.06436022627674,0.021
1.97961305972633,-2.05424454741964,0.022
2.00947490590074,-2.04359177361885,0.023
2.04007953389298,-2.03240061242046,0.024
2.07132427018491,-2.02072722115365,0.025
2.1030803442802,-2.00859698638714,0.026
2.13521815585387,-1.99605242825968,0.027
2.16762785630046,-1.98309426140726,0.028
2.20019584359643,-1.96966480938591,0.029
2.23278011532138,-1.95567414734362,0.03
2.26516154651716,-1.94120247954756,0.031
2.29718934625126,-1.92621957298432,0.032
2.32865255034704,-1.91075963377426,0.033
2.35938629515125,-1.89486899960433,0.034
2.38918113285232,-1.87851976330481,0.035
2.41779368427246,-1.86164964513463,0.036
2.44506139654989,-1.84432147257002,0.037
2.47084020761482,-1.82654138460998,0.038
2.49483288314044,-1.80829071721817,0.039
2.5168570952832,-1.78946144752011,0.04
2.53677493161738,-1.77011359292029,0.041
2.5543656470391,-1.75015717152844,0.042
2.5693549234717,-1.72960332402624,0.043
2.58163058200885,-1.70839790376815,0.044
2.59094644549098,-1.68652086036431,0.045
2.59710331347046,-1.66393657847577,0.046
2.60001260162057,-1.64066381726506,0.047
2.59955947959974,-1.61659612126759,0.048
2.59553782538753,-1.59176269206046,0.049
2.58779081409842,-1.56628018399153,0.05
2.57629137580478,-1.54006482683634,0.051
2.56099859405368,-1.51312761101587,0.052
2.54176813434487,-1.48562578255143,0.053
2.51855594739581,-1.4576053146788,0.054
2.49145389748034,-1.42906562562823,0.055
2.46040937127661,-1.40017844710018,0.056
2.42537327882111,-1.37095798921122,0.057
2.38646234417104,-1.3415066478867,0.058
2.34382807539275,-1.31192944876492,0.059
2.29752604632735,-1.28234979477464,0.06
2.24769343617619,-1.25274340827195,0.061
2.19451923768757,-1.22320778813621,0.062
2.13816599557604,-1.19381806113483,0.063
2.07874355038383,-1.16466894980878,0.064
2.01652624863473,-1.13578279326684,0.065
1.95163368539263,-1.10724377860121,0.066
1.88429706455221,-1.07898302234112,0.067
1.8147435402717,-1.05101901056361,0.068
1.74322014842256,-1.02336961505845,0.069
1.6699595243853,-0.996053662482149,0.07
1.59515322812295,-0.969011879153603,0.071
1.51900975281239,-0.942303757979247,0.072
1.44181757142803,-0.915872496615779,0.073
1.36379020862619,-0.88970667935912,0.074
1.28505716747189,-0.863835362800988,0.075
1.20589713322323,-0.838202932620116,0.076
1.12651514992657,-0.812813339896044,0.077
1.04714691716596,-0.787594398734658,0.078
0.968040168066896,-0.762498135851486,0.079
0.889335725613885,-0.737577151442456,0.08
0.811292528910864,-0.712736056681419,0.081
0.734164159513569,-0.688029471300009,0.082
0.65820226594487,-0.663331990989016,0.083
0.583601888346536,-0.63868128178886,0.084
0.510653813430509,-0.614063547941371,0.085
0.439481016964626,-0.589465980803407,0.086
0.370209226776204,-0.564775075301153,0.087
0.30306513668871,-0.539984485120246,0.088
0.23821568036545,-0.515085338655053,0.089
0.175797243035025,-0.489963849480258,0.09
0.115936487842084,-0.464537259441154,0.091
0.0587464036583409,-0.438837471843085,0.092
0.00431729993961352,-0.412751362338091,0.093
-0.0473262602023681,-0.386170961477763,0.094
-0.0960978012790318,-0.359056703780188,0.095
-0.141900771676812,-0.331329829972429,0.096
-0.18474631457189,-0.302882986923263,0.097
-0.224628494074958,-0.273668999458616,0.098
-0.261464840088864,-0.243633656917321,0.099
-0.295274456039278,-0.212763670093689,0.1
-0.326034968685582,-0.180885947678391,0.101
-0.353848480244156,-0.148003344304853,0.102
-0.378702814408727,-0.114027446709513,0.103
-0.400661694879234,-0.078959099839211,0.104
-0.419732456825802,-0.0427416966699431,0.105
-0.435995516387249,-0.00535636124883251,0.106
-0.4495569576536,0.0331909307361073,0.107
-0.460480368154159,0.0729295856679584,0.108
-0.468790628817046,0.113880640014735,0.109
-0.474535677352861,0.155953567284646,0.11
-0.477977599270761,0.199225204256334,0.111
-0.479215131413974,0.243635890254597,0.112
-0.478295484259849,0.289272102973148,0.113
-0.4753885587607,0.336021668826013,0.114
-0.470694496701559,0.383872531568151,0.115
-0.464422331701886,0.432879091464291,0.116
-0.456722186024478,0.482985967275861,0.117
-0.447799221582139,0.534297455307802,0.118
-0.437956541209187,0.586867214633353,0.119
-0.427318731636672,0.64074234761321,0.12
-0.416132798371066,0.695852889390458,0.121
-0.4046998820089,0.752351606354001,0.122
-0.393269743037214,0.810192981701872,0.123
-0.381954710364922,0.869408735129407,0.124
-0.3711601310869,0.930046958985819,0.125
-0.361116267164165,0.99216191580777,0.126
-0.351944398665627,1.05579803337516,0.127
-0.343809382503759,1.12090145512495,0.128
-0.33696626097976,1.18741530614736,0.129
-0.331559559074751,1.25525451031281,0.13
-0.327735520345938,1.32427123876504,0.131
-0.32559571077598,1.39445569579626,0.132
-0.325278901992499,1.46575721990469,0.133
-0.326810843435594,1.53807961929321,0.134
-0.330418347468598,1.61134934703152,0.135
-0.336189924722909,1.68548613237382,0.136
-0.344064070036306,1.7602097777003,0.137
-0.354173844993672,1.83540612941487,0.138
-0.366626042993944,1.91103396525587,0.139
-0.381257862544388,1.98688166500183,0.14
-0.398063102148091,2.06270463089872,0.141
-0.417141427721067,2.13851982383348,0.142
-0.43839697114372,2.2140683087531,0.143
-0.461659695329923,2.28915489394025,0.144
-0.486951567867875,2.36366749339754,0.145
-0.514098263761374,2.43745328160399,0.146
-0.542976380320321,2.51033108413459,0.147
-0.573569831853984,2.58215307839019,0.148
-0.605703317671585,2.65268944758366,0.149
-0.639224353506995,2.72183130654456,0.15
-0.673950893437232,2.7895994322159,0.151
-0.709779585427165,2.85576506594698,0.152
-0.746656130451455,2.92020536402676,0.153
-0.784411393487145,2.98292294400797,0.154
-0.82293820907228,3.04384485932854,0.155
-0.862179961136593,3.10284015364604,0.156
-0.902008933105649,3.1599152342818,0.157
-0.942254018599055,3.21498242071389,0.158
-0.982895889886912,3.26801885709837,0.159
-1.02389322172714,3.31903750906304,0.16
-1.06514145502328,3.36797246407758,0.161
-1.10657175478949,3.41475285156266,0.162
-1.14813011113854,3.45935212726725,0.163
-1.18974868161142,3.50175007688159,0.164
-1.23133644113281,3.54195948426786,0.165
-1.27294034888383,3.57993586763229,0.166
-1.31435844796282,3.61569152001799,0.167
-1.3555374772282,3.64910823554276,0.168
-1.39643885972296,3.68021041556889,0.169
-1.43699356796117,3.70892009086351,0.17
-1.47710240153308,3.73528292007811,0.171
-1.51666378098075,3.75922249778805,0.172
-1.55561782114675,3.78076867683905,0.173
-1.59387289945858,3.79988397897994,0.174
-1.63135936362892,3.81651947519935,0.175
-1.66791877421869,3.83072834375682,0.176
-1.70351335113953,3.8424767450814,0.177
-1.73804514257218,3.85188984124027,0.178
-1.77151911734315,3.85888816818077,0.179
-1.80388401337822,3.86349233271177,0.18
-1.83496451832166,3.86583614986298,0.181
-1.86481134220118,3.86591316378021,0.182
-1.89339600444169,3.86380234153237,0.183
-1.92077438492637,3.85949037344743,0.184
-1.94692247746643,3.85312845140743,0.185
-1.97197070502541,3.84482664397877,0.186
-1.99581772316001,3.83475344530571,0.187
-2.01845967469818,3.82292725410805,0.188
-2.04001919570893,3.80948881077818,0.189
-2.06055303393149,3.79452860094853,0.19
-2.08004864275351,3.77810941855172,0.191
-2.09858046988301,3.76031092672732,0.192
-2.11623359317274,3.74125987372413,0.193
-2.13302571070606,3.72107037449326,0.194
-2.14903749655757,3.69983529945398,0.195
-2.164316407593,3.67767569695598,0.196
-2.178909463424,3.65464922861548,0.197
-2.19283605899663,3.63087280750543,0.198
-2.20616364479664,3.60645395916555,0.199
-2.21900759648926,3.58151146425245,0.2
-2.23143463379716,3.55616509515255,0.201
-2.24352567568757,3.53043181142569,0.202
-2.25524421041085,3.50447469534536,0.203
-2.26670530600412,3.47829651461024,0.204
-2.27803463508019,3.4521096701299,0.205
-2.28929947831284,3.4259635744579,0.206
-2.30051226731352,3.39993371877802,0.207
-2.31174819544696,3.37415893099976,0.208
-2.32309138583526,3.34869205227682,0.209
-2.33462955901483,3.32361286364306,0.21
-2.34640309869072,3.29904721158368,0.211
-2.35841872387117,3.27501086477723,0.212
-2.37073074373304,3.25163561554003,0.213
-2.38344417601374,3.22885882637043,0.214
-2.39655639421963,3.20681770001421,0.215
-2.41009459430571,3.18556961033441,0.216
-2.42404146596878,3.16511549703366,0.217
-2.43844979031631,3.14551898612689,0.218
-2.45329316387254,3.12676219947745,0.219
-2.4685113270446,3.10885582385609,0.22
-2.48417008949784,3.09177717954008,0.221
-2.50020200898228,3.07560746960893,0.222
-2.51655186850973,3.06027284738554,0.223
-2.53320586950096,3.04577679271657,0.224
-2.55016317752464,3.03207050624166,0.225
-2.56726818095174,3.01912916522599,0.226
-2.58448895108986,3.00692542685775,0.227
-2.6018077521505,2.99539577991144,0.228
-2.61918735304816,2.9845838667068,0.229
-2.63655842841043,2.97450161984296,0.23
-2.65388139403137,2.96513241273743,0.231
-2.67112865631491,2.95644433469906,0.232
-2.68833909800031,2.94843811680144,0.233
-2.70540846103952,2.94107039611781,0.234
-2.72231068084107,2.93434324027674,0.235
-2.73894329105025,2.92825422221091,0.236
-2.75527827901026,2.92277842980041,0.237
-2.77132606407132,2.91798786716312,0.238
-2.78700219381661,2.9138962598084,0.239
-2.8022482692007,2.91040029199371,0.24
-2.8171269546041,2.90750892542929,0.241
-2.83159890943271,2.90524911742336,0.242
-2.8455570759824,2.90347874957981,0.243
-2.85901056243821,2.90223791421895,0.244
-2.87194497975768,2.90149647356422,0.245
-2.88429676328035,2.90116615025101,0.246
-2.89606101220279,2.90121677320529,0.247
-2.90722194943173,2.9015997564897,0.248
-2.91766364677908,2.90224341008005,0.249
-2.92739217628812,2.90315037576757,0.25
-2.93637119936952,2.904233420862,0.251
-2.94455475463244,2.90533626210502,0.252
-2.95188040108294,2.90645769145759,0.253
-2.95827551276452,2.90751483116832,0.254
-2.9637061957389,2.90838354932952,0.255
-2.96808744395558,2.90899654972333,0.256
-2.97137904644175,2.90929088645983,0.257
-2.97352039220816,2.90914584252658,0.258
-2.97447989765035,2.90850303422744,0.259
-2.97417662563556,2.90724171754293,0.26
-2.97255833764361,2.9052180449938,0.261
-2.96955870363897,2.902394453633,0.262
-2.96511667271686,2.8986704595333,0.263
-2.95921500662614,2.89392108524057,0.264
-2.95178301444301,2.88809316604258,0.265
-2.94278380510187,2.88103740320457,0.266
-2.93210568148226,2.87270746195152,0.267
-2.91978027433271,2.86297048730369,0.268
-2.90581981755572,2.85181474370593,0.269
-2.89019750534472,2.83905713134435,0.27
-2.87288271219789,2.82468467006099,0.271
-2.85386392545859,2.80858380848534,0.272
-2.8331216669779,2.79069756792231,0.273
-2.81066679665483,2.77097481492121,0.274
-2.78657611645317,2.74939564919578,0.275
-2.76086394438029,2.72590898789237,0.276
-2.73356194680268,2.70046202828738,0.277
-2.70475946458452,2.6730072372174,0.278
-2.67453444204652,2.6434768530468,0.279
-2.6428835363998,2.61193288376449,0.28
-2.60986522034352,2.57839459412198,0.281
-2.57562820566875,2.54279921984999,0.282
-2.54016649864654,2.50519120115924,0.283
-2.50357384788187,2.46556535013683,0.284
-2.46587775289369,2.42395381631266,0.285
-2.42713075495979,2.38034386173879,0.286
-2.38735433329415,2.33471591659032,0.287
-2.34670098664486,2.28708077292111,0.288
-2.3052257229911,2.23747156330899,0.289
-2.26298255323515,2.18595946813421,0.29
-2.22004550667183,2.13260313662103,0.291
-2.17652696675673,2.07747354615688,0.292
-2.13244725430301,2.02069221740086,0.293
-2.08790409978975,1.96231686116923,0.294
-2.04298157359175,1.90238345827761,0.295
-1.9977234664143,1.84099230146404,0.296
-1.95221402160015,1.77827618830527,0.297
-1.90660377601592,1.71437225091688,0.298
-1.8610092812265,1.64937952989785,0.299
-1.81548385809094,1.58342711408886,0.3
-1.77009819158117,1.51661541463795,0.301
-1.72494065037608,1.44910131357112,0.302
-1.68011895331331,1.38106371747927,0.303
-1.635721332539,1.31261253362726,0.304
-1.59179273064011,1.24396603751128,0.305
-1.5483792038292,1.17521106031363,0.306
-1.50556786864609,1.10653088648389,0.307
-1.46347457305636,1.03813103998755,0.308
-1.42213778110202,0.970088359239823,0.309
-1.38163627198409,0.90262234945531,0.31
-1.34204401259435,0.835903159678948,0.311
-1.30343550669831,0.770078397486815,0.312
-1.26582534450035,0.705353506136265,0.313
-1.22932585537865,0.641835420669295,0.314
-1.19395059280385,0.579792118313371,0.315
-1.15976404787825,0.519348335055364,0.316
-1.12679533380437,0.460648482295681,0.317
-1.09511883803825,0.403865259373992,0.318
-1.0647875282829,0.349094460665394,0.319
-1.0358454469091,0.2963889595902,0.32
-1.00832975083799,0.245887656946704,0.321
-0.982260467526216,0.197691803075846,0.322
-0.957736678476706,0.151855691480419,0.323
-0.934725676458227,0.108523323171604,0.324
-0.913220273539607,0.0677281906856587,0.325
-0.893299853314631,0.0295950324068969,0.326
-0.875003959620663,-0.0058280551353054,0.327
-0.858309097703557,-0.0385179959723611,0.328
-0.843277947685938,-0.0684639911584097,0.329
-0.829937868487743,-0.0956308366144391,0.33
-0.818234556863426,-0.120081014399181,0.331
-0.808167103789833,-0.141812116279869,0.332
-0.799732356601923,-0.160788095299107,0.333
-0.792834613915457,-0.177097255866101,0.334
-0.787496654329598,-0.190777154644447,0.335
-0.783740238468559,-0.201873046584311,0.336
-0.781484755291451,-0.210492407436707,0.337
-0.780669833649937,-0.216763494310439,0.338
-0.781287645512779,-0.220759013571749,0.339
-0.783290795233417,-0.22263468295328,0.34
-0.786603004182132,-0.222444008713267,0.341
-0.791159531730667,-0.220308175594819,0.342
-0.796862146783144,-0.216399142631486,0.343
-0.803682919193831,-0.210846697157946,0.344
-0.811539435284517,-0.203804750029699,0.345
-0.820366789928619,-0.195462036341959,0.346
-0.830067357451284,-0.18594934114623,0.347
-0.840574799650073,-0.175490804211763,0.348
-0.851787978683922,-0.164217035659799,0.349
-0.863642862464934,-0.152308527438824,0.35
-0.876058365938852,-0.139988529373087,0.351
-0.88894574417575,-0.127420628302664,0.352
-0.902225002785392,-0.114749669508675,0.353
-0.915823937862296,-0.102186098299355,0.354
-0.929618044031411,-0.0899109269855146,0.355
-0.943504200604042,-0.0780747805056678,0.356
-0.957391755506683,-0.0668717936551865,0.357
-0.97118620366405,-0.0564785322032051,0.358
-0.984788025041115,-0.0470430628291098,0.359
-0.998110308555823,-0.0387558788920138,0.36
-1.01105156755797,-0.0317232564056841,0.361
-1.02350739670759,-0.0260533705583291,0.362
-1.03540347375316,-0.0218869617471981,0.363
-1.0466717722616,-0.0193509614128394,0.364
-1.05721631531743,-0.0184783861089528,0.365
-1.06698749058648,-0.0194102937528204,0.366
-1.07590321237491,-0.0222100507671544,0.367
-1.08393864365408,-0.0269587372298684,0.368
-1.09105078392392,-0.0336742576659522,0.369
-1.09713165713702,-0.0424585795544849,0.37
-1.10209732553267,-0.0531914954456472,0.371
-1.10596787263674,-0.0659544140242076,0.372
-1.10871463571987,-0.0807478753986382,0.373
-1.1103694786231,-0.0975148183214618,0.374
-1.11088517115667,-0.116276508209977,0.375
-1.11018690825765,-0.137020701432011,0.376
-1.10825746935208,-0.159646980778384,0.377
-1.10512133321491,-0.184138083408963,0.378
-1.10069227532757,-0.210405507660408,0.379
-1.09492632547586,-0.238376687803559,0.38
-1.0878432422973,-0.2680306585578,0.381
-1.07943023775155,-0.299332555611188,0.382
-1.06964953262071,-0.332166271095025,0.383
-1.05852649607825,-0.366463503178807,0.384
-1.04604530911074,-0.402098914738486,0.385
-1.03221454587517,-0.438980207169999,0.386
-1.01708325939051,-0.476958285593241,0.387
-1.0006626228284,-0.515923209621654,0.388
-0.982957475769669,-0.555774912287295,0.389
-0.964039334338909,-0.596337166524579,0.39
-0.943904649522269,-0.637568422303568,0.391
-0.922571497958539,-0.679317520744733,0.392
-0.900072295419335,-0.721441290363057,0.393
-0.87649693314802,-0.763914818025676,0.394
-0.851840537590603,-0.806562301193014,0.395
-0.826177327481906,-0.849227849878486,0.396
-0.799522680286257,-0.891844392653364,0.397
-0.771952156513727,-0.934337221208667,0.398
-0.743462377054217,-0.97658236120835,0.399
-0.714066823249722,-1.01848337563838,0.4
-0.683829245969907,-1.05995538062919,0.401
-0.652836239256865,-1.10087907879531,0.402
-0.621082169777677,-1.14121321896677,0.403
-0.588619820227659,-1.18090019637446,0.404
-0.555536628062063,-1.21984590819933,0.405
-0.521887231682951,-1.25802072424973,0.406
-0.487706613623394,-1.29538976454952,0.407
-0.453064582497693,-1.33184672358328,0.408
-0.418002079847929,-1.36741796022005,0.409
-0.3825812350049,-1.4019823495682,0.41
-0.346816080732181,-1.4355966114784,0.411
-0.310757325274858,-1.46823726560382,0.412
-0.274474049731433,-1.49989558917247,0.413
-0.238039159309337,-1.53059222705104,0.414
-0.201405342947506,-1.56030967866735,0.415
-0.164662764375885,-1.58911328195042,0.416
-0.127870098997861,-1.61701893184976,0.417
-0.091042397778941,-1.64403727824987,0.418
-0.0541851648169629,-1.67026995519063,0.419
-0.017304752227767,-1.69568673279567,0.42
0.0195844065528735,-1.72026968785341,0.421
0.0564176170921276,-1.74411720522539,0.422
0.0932091186663392,-1.76722044525496,0.423
0.129988638945213,-1.78964302477514,0.424
0.166670685724239,-1.81149227376069,0.425
0.203230229868076,-1.8326930528965,0.426
0.239714806799926,-1.8533482838056,0.427
0.276085125303583,-1.87349580398047,0.428
0.312273872467826,-1.89314324204332,0.429
0.348339015616963,-1.91230864429272,0.43
0.384283382079571,-1.93108590196758,0.431
0.419983012049466,-1.94943167817042,0.432
0.455432006055483,-1.96734540611845,0.433
0.49061005129048,-1.98495470381233,0.434
0.525483732593269,-2.00219661849047,0.435
0.559999463032604,-2.0191398841212,0.436
0.594173178165198,-2.03583058307084,0.437
0.627943143606289,-2.05226112030024,0.438
0.661263460554898,-2.06839577897942,0.439
0.694087527202636,-2.08432232865867,0.44
0.726411921941386,-2.09997930878708,0.441
0.758198498639475,-2.11539232012759,0.442
0.789376402363501,-2.13059790887498,0.443
0.819878212779902,-2.14553026665495,0.444
0.849712010834162,-2.1601958808917,0.445
0.878845186630185,-2.17458508552761,0.446
0.907179530767648,-2.18865406451592,0.447
0.934689628941484,-2.20237105770939,0.448
0.961332731879955,-2.21567139682525,0.449
0.987050836546017,-2.2285791971204,0.45
1.01179065071063,-2.24100318788601,0.451
1.03551358159773,-2.25291032826512,0.452
1.05819262082786,-2.26429803771736,0.453
1.07977769665323,-2.27514910049236,0.454
1.10025213014717,-2.28541859473002,0.455
1.11959258646677,-2.29509641814065,0.456
1.13776049149753,-2.30413492609353,0.457
1.15469450395812,-2.31254717673724,0.458
1.17043256799939,-2.32032264977807,0.459
1.18496412342336,-2.32743198343079,0.46
1.19827245305809,-2.33388378277501,0.461
1.210375976063,-2.33965801708386,0.462
1.22129164396329,-2.34477096611471,0.463
1.23101328597237,-2.34924572338364,0.464
1.23957568593754,-2.3530659628082,0.465
1.24701368374295,-2.35627126627126,0.466
1.25337586059895,-2.35885025111594,0.467
1.25870512348826,-2.36079946727121,0.468
1.26306192699357,-2.36214299169695,0.469
1.26651345349908,-2.3628742268369,0.47
1.26911973581512,-2.36298525242443,0.471
1.27089987455769,-2.36257971940684,0.472
1.27199622440929,-2.36161586812108,0.473
1.27250874729903,-2.3600883592971,0.474
1.2725435205637,-2.35807804799302,0.475
1.27219992036905,-2.35558604760936,0.476
1.27155175763015,-2.3526155455172,0.477
1.27072300893727,-2.34922415484609,0.478
