Drag (N),Lift (N),Time (s)
2.852,-4.874,0
2.91516015471666,-4.83902958283685,0.001
2.9782328221635,-4.80413370765217,0.002
3.04100470569728,-4.76945108243941,0.003
3.10325235490061,-4.73514003681638,0.004
3.16496146450596,-4.70122463052097,0.005
3.22597337224358,-4.66763498466048,0.006
3.28618503002788,-4.63445757317217,0.007
3.34546371514143,-4.60184136507019,0.008
3.40368917187546,-4.56974224866521,0.009
3.46075995787071,-4.5383661295998,0.01
3.51650995696544,-4.50768498218072,0.011
3.57086693437652,-4.47777052044559,0.012
3.62373621835215,-4.44876635127602,0.013
3.67499526019534,-4.42060630926896,0.014
3.72459462127637,-4.39339502900982,0.015
3.77241851221982,-4.36725147860837,0.016
3.81847752293966,-4.34224369961554,0.017
3.8626228638126,-4.3183178604996,0.018
3.90478498237964,-4.29552505925174,0.019
3.94493412339743,-4.27397195813119,0.02
3.98307806047148,-4.25358980497967,0.021
4.01911029120654,-4.23450775895283,0.022
4.05298848133981,-4.21661914153922,0.023
4.0847718639322,-4.19992545810086,0.024
4.11447199183333,-4.18448944425532,0.025
4.1420063211392,-4.17024338095588,0.026
4.16735484922453,-4.15722098123327,0.027
4.19057846877428,-4.14538085375724,0.028
4.21170192122112,-4.13462869751195,0.029
4.23075705322757,-4.12506451058491,0.03
4.24776999979219,-4.11663968471624,0.031
4.2628144914082,-4.10938405912752,0.032
4.27598760576332,-4.10319178291707,0.033
4.28733014480388,-4.09803991960098,0.034
4.2969356002451,-4.09399592648775,0.035
4.30492998930146,-4.09088299274396,0.036
4.31137294378299,-4.08865980560785,0.037
4.31632142641825,-4.08733530841088,0.038
4.31986982479212,-4.08679601451501,0.039
4.32218203904952,-4.0869917825095,0.04
4.32335329789754,-4.08786406504974,0.041
4.32350364438734,-4.08933508590303,0.042
4.3226809978239,-4.09138824267707,0.043
4.32103072265245,-4.09387841279043,0.044
4.31866718629833,-4.09674938369189,0.045
4.31571101996626,-4.09989010887149,0.046
4.31222244220288,-4.10317242109661,0.047
4.3082903612166,-4.10655665508052,0.048
4.30405923795961,-4.10985315054968,0.049
4.29955967077414,-4.11296505662535,0.05
4.29496980447393,-4.11572763829697,0.051
4.2903640277208,-4.11797895657413,0.052
4.28585675245037,-4.11963824545167,0.053
4.28154427349812,-4.12050847243455,0.054
4.27749102372736,-4.12050936783515,0.055
4.27379955985609,-4.11945105699437,0.056
4.27053711789082,-4.11717073331293,0.057
4.26779753369435,-4.11354545405895,0.058
4.26560827601621,-4.10836327001467,0.059
4.26402186755383,-4.10159574682787,0.06
4.26312247777969,-4.0930238536109,0.061
4.26287292644474,-4.08260255758674,0.062
4.26329494648593,-4.07014402930832,0.063
4.26436094363094,-4.05556895776447,0.064
4.26611990295797,-4.03878349673171,0.065
4.26855420884541,-4.01963812035308,0.066
4.27161656196426,-3.99800780991677,0.067
4.2752791644688,-3.97390860470023,0.068
4.27953761689638,-3.94720186872509,0.069
4.2844003157367,-3.91777753880406,0.07
4.28982146160956,-3.88560335409275,0.071
4.29577699382734,-3.85065957893496,0.072
4.30221840154534,-3.81287277557034,0.073
4.30910207235169,-3.7721521808985,0.074
4.31640130389076,-3.72847405648671,0.075
4.32409144215225,-3.68184539781332,0.076
4.33213885223484,-3.63229129749132,0.077
4.34045886683523,-3.57982661182171,0.078
4.34895964270209,-3.52438603878647,0.079
4.35756398079054,-3.46605269306949,0.08
4.36630705334861,-3.40491360460948,0.081
4.37517424380924,-3.34103088164873,0.082
4.38410520307319,-3.27456893726775,0.083
4.39300968827418,-3.20557597848893,0.084
4.40184281428153,-3.13418039283169,0.085
4.41067012628505,-3.06057985441426,0.086
4.41941820049604,-2.98492834571398,0.087
4.42808241784588,-2.9073099299663,0.088
4.43658439069842,-2.82785786015316,0.089
4.44493659346669,-2.74688630471385,0.09
4.45315390314296,-2.66452133425671,0.091
4.46114162552587,-2.58097114591785,0.092
4.4688716455166,-2.49647946677078,0.093
4.47634694528329,-2.41117336920461,0.094
4.48355769028854,-2.32527737920704,0.095
4.49048130219538,-2.23898456553334,0.096
4.49703059341371,-2.15245914476313,0.097
4.50315385458324,-2.06602739438072,0.098
4.50878915170898,-1.97995989043278,0.099
4.51398080509562,-1.894422187285,0.1
4.51867676846545,-1.80959364554376,0.101
4.52270985000472,-1.72571135099333,0.102
4.52601526508275,-1.64299386191162,0.103
4.52858150356719,-1.56161532437551,0.104
4.53034051375304,-1.48181974453268,0.105
4.53106867041311,-1.40381799230174,0.106
4.5307509734035,-1.3278795680989,0.107
4.52931629685259,-1.2542132272789,0.108
4.52657609219651,-1.1829329102762,0.109
4.52242152228347,-1.11425966759737,0.11
4.51681588806919,-1.04826712787724,0.111
4.50967789507205,-0.985245778696966,0.112
4.50093108549539,-0.925221702932143,0.113
4.49054980415953,-0.868345568782637,0.114
4.4785445713208,-0.814714487513073,0.115
4.46481315280313,-0.76427743027981,0.116
4.44935933083509,-0.71711293044845,0.117
4.43212789091754,-0.67333913411033,0.118
4.41307673346995,-0.632976820960834,0.119
4.39226093400356,-0.596026538652592,0.12
4.36967382480931,-0.562526896118543,0.121
4.34517893969968,-0.532519353218099,0.122
4.31882025079763,-0.505847484660887,0.123
4.29060391038543,-0.482645427133728,0.124
4.26040447633542,-0.462889165562473,0.125
4.22820831898543,-0.44651346350598,0.126
4.1940940117823,-0.433505620269414,0.127
4.15798060877177,-0.423748814245417,0.128
4.11981517775242,-0.417181176043964,0.129
4.07958046768085,-0.413651854051873,0.13
4.03721004883154,-0.412968318373294,0.131
3.99270702577498,-0.414986584100496,0.132
3.9459868224629,-0.419387822354616,0.133
3.89693270592988,-0.426041496337009,0.134
3.84552330112498,-0.434694572576326,0.135
3.79176739822392,-0.445095256642888,0.136
3.73556401805636,-0.457017333430697,0.137
3.67692932003429,-0.470146148091257,0.138
3.61597433576829,-0.484286875612025,0.139
3.55269175415078,-0.499188944813074,0.14
3.48704387112505,-0.514456134059857,0.141
3.41909760344512,-0.529808896648735,0.142
3.34891944889035,-0.545006206964433,0.143
3.27667503159835,-0.559707839524445,0.144
3.20239276436107,-0.573665224819623,0.145
3.12614359145055,-0.586664485906853,0.146
3.04798162298281,-0.598491532425354,0.147
2.96806200221696,-0.608960935985943,0.148
2.88662082283664,-0.617826193044319,0.149
2.80370780233033,-0.624911080126687,0.15
2.7195264333169,-0.630070645032297,0.151
2.63412835769692,-0.633149947824128,0.152
2.54769735131718,-0.634044087875976,0.153
2.46033635940772,-0.63254832593518,0.154
2.37224820712196,-0.628562350414099,0.155
2.28360371843056,-0.621946379024855,0.156
2.1944814358193,-0.612617224398144,0.157
2.10508482371202,-0.600525613643563,0.158
2.01555122189681,-0.585553256378078,0.159
1.9260854229754,-0.567757918529704,0.16
1.83683225895285,-0.546912578367717,0.161
1.74791790069796,-0.523032023996126,0.162
1.65961098893898,-0.495915448576556,0.163
1.57208434778539,-0.46564506539614,0.164
1.48552083771911,-0.432195936008003,0.165
1.39999892381335,-0.395573358200282,0.166
1.31567046195268,-0.355712075837217,0.167
1.23280392650441,-0.312688117786936,0.168
1.15156505394919,-0.26646922980733,0.169
1.07200529376534,-0.217105977561792,0.17
0.994228183170443,-0.164725877950427,0.171
0.918328071609166,-0.109356430728206,0.172
0.844404795741313,-0.0510930136421955,0.173
0.772603484328386,0.0099623763648409,0.174
0.703019873986354,0.0736971933597695,0.175
0.635639251078315,0.139923272857847,0.176
0.570404675949516,0.208593588707465,0.177
0.507348577019309,0.279596188331621,0.178
0.446607098096423,0.3527610476026,0.179
0.388161052838823,0.427907646385186,0.18
0.331962287052925,0.504919162362723,0.181
0.277792371564854,0.583619300055652,0.182
0.225575827003388,0.663907996582283,0.183
0.175244338295879,0.745650264733973,0.184
0.126743037203689,0.828655485619665,0.185
0.0799416669295981,0.912799872558586,0.186
0.0346194791182777,0.997916144836593,0.187
-0.00932237185085393,1.08392649234843,0.188
-0.052049882466419,1.17068197193363,0.189
-0.0936740594147798,1.25792304383541,0.19
-0.134405068905528,1.34557430877909,0.191
-0.174463806518058,1.43352791715541,0.192
-0.213907804226077,1.52158717236518,0.193
-0.252834801369644,1.60959972788235,0.194
-0.291404614156912,1.69743826252514,0.195
-0.329822448438377,1.78493693000115,0.196
-0.36815419617322,1.87192775332096,0.197
-0.40643518333228,1.95822594260148,0.198
-0.444775183351633,2.04371273740697,0.199
-0.483364705753305,2.12825270051127,0.2
-0.522320386456781,2.21174239487729,0.201
-0.561608536614231,2.29414401878579,0.202
-0.601223914028069,2.37521071134069,0.203
-0.641266992271052,2.45495963710312,0.204
-0.681889408754995,2.53318913283962,0.205
-0.723016227026019,2.6098524724781,0.206
-0.764567786871685,2.68481612034227,0.207
-0.806692599676224,2.75796320108951,0.208
-0.849426525319354,2.82927187104043,0.209
-0.892641549269899,2.89866748387093,0.21
-0.936296508432016,2.96596865973332,0.211
-0.980520485512315,3.03115709136677,0.212
-1.02519953860578,3.09432263946073,0.213
-1.07030467832551,3.15525279043704,0.214
-1.11593066249681,3.21405294742317,0.215
-1.16213995049332,3.27065629346033,0.216
-1.20877658047103,3.32493509394281,0.217
-1.25591574668088,3.37689028139028,0.218
-1.30361543572575,3.42666057994547,0.219
-1.35171669088931,3.47412408702002,0.22
-1.40027802763495,3.5192864186203,0.221
-1.44930285813528,3.56225739142249,0.222
-1.49864354040446,3.6030539438864,0.223
-1.54824594100784,3.64162431134686,0.224
-1.59810850342142,3.67816596458004,0.225
-1.64804828013826,3.71273060939836,0.226
-1.69800980569965,3.74526529946694,0.227
-1.74792685994666,3.77588266562509,0.228
-1.79763375508555,3.80462058769154,0.229
-1.84696901525551,3.83141746282997,0.23
-1.89577671648647,3.85628458648501,0.231
-1.94385553338113,3.87917033009196,0.232
-1.99104088589969,3.90009800225871,0.233
-2.03714021904931,3.91900994277681,0.234
-2.08188975932886,3.93577681075039,0.235
-2.1250404038112,3.95034485066886,0.236
-2.16649269532592,3.96275409310737,0.237
-2.20599817637587,3.97283813828766,0.238
-2.24336353215597,3.9804458010013,0.239
-2.27849689299429,3.98570314404406,0.24
-2.31122480968927,3.98853074581364,0.241
-2.34137860330283,3.98868669739942,0.242
-2.36887055185416,3.98622037964655,0.243
-2.39360712473926,3.98111609893343,0.244
-2.41556508018337,3.97325553397193,0.245
-2.43461816029696,3.96255945382388,0.246
-2.45068977498101,3.94915283555856,0.247
-2.46369405123299,3.93304145720315,0.248
-2.47359257635113,3.91427285561647,0.249
-2.48047657357725,3.89281469268915,0.25
-2.48425664022063,3.86868437073285,0.251
-2.48491783988101,3.84191314179589,0.252
-2.48240231093457,3.81255361798549,0.253
-2.47674445695376,3.78063257167684,0.254
-2.46797315294575,3.74606329958674,0.255
-2.45610752538242,3.70897698851852,0.256
-2.44112581821324,3.66934144337892,0.257
-2.42305889191362,3.6272026870492,0.258
-2.40196406422995,3.5826197623823,0.259
-2.37785948276676,3.53559507764549,0.26
-2.35079338519493,3.48626373333298,0.261
-2.32079413025038,3.43451769676272,0.262
-2.28798627411879,3.38038528058443,0.263
-2.25249108664018,3.32388253304939,0.264
-2.21442419376834,3.26506472436153,0.265
-2.17388255800184,3.20396691588553,0.266
-2.13090013788271,3.14069202783517,0.267
-2.08561179873225,3.07520507511441,0.268
-2.03824561923232,3.00760718501463,0.269
-1.98893315060451,2.93796049043648,0.27
-1.93773725102337,2.86631916900136,0.271
-1.8848245997464,2.79285386817389,0.272
-1.83034117210056,2.71766002014369,0.273
-1.77441326062949,2.64089763472992,0.274
-1.71729515610868,2.56266129102549,0.275
-1.65910572403659,2.48308533051397,0.276
-1.59994932695011,2.40232061273477,0.277
-1.53997433666665,2.32043686392216,0.278
-1.47929616557305,2.23761043031901,0.279
-1.41817176267833,2.15397923425394,0.28
-1.35667223902041,2.06968484172931,0.281
-1.2949744354198,1.98488817651732,0.282
-1.23312599949459,1.89976711632875,0.283
-1.17126008967937,1.81442094028357,0.284
-1.1095216198118,1.72908623410979,0.285
-1.04805206634977,1.64391586708226,0.286
-0.986977281873681,1.55906283064161,0.287
-0.92641141940154,1.47471444760101,0.288
-0.8664896548358,1.39094565534369,0.289
-0.807315828277955,1.30787784337466,0.29
-0.748982628088566,1.22576102626638,0.291
-0.691554353605254,1.14473566723572,0.292
-0.63514032387422,1.06486099493413,0.293
-0.579889024190969,0.986328706973342,0.294
-0.525917246609229,0.909343901690988,0.295
-0.473356332622675,0.833955933732084,0.296
-0.422260653732387,0.760312544794597,0.297
-0.37275114214159,0.688605634196844,0.298
-0.324994050867379,0.618875080432295,0.299
-0.279034586699657,0.551300803762931,0.3
-0.234872573318437,0.486031678044672,0.301
-0.192615684256327,0.42318304874186,0.302
-0.152388432569939,0.362718528232472,0.303
-0.114233629485874,0.304826675357968,0.304
-0.0781415759949758,0.249476841203089,0.305
-0.044075438635363,0.196795509702237,0.306
-0.0121584647069683,0.146825606896676,0.307
0.0175635972444001,0.0996264428958378,0.308
0.0451959884751839,0.0552564362056097,0.309
0.070740477392567,0.0136985216288191,0.31
0.0941324978236015,-0.0251054150012934,0.311
0.115425867449846,-0.061033951255898,0.312
0.134716819303461,-0.0941578548737943,0.313
0.151962928458507,-0.124601826975039,0.314
0.16720207188591,-0.152260624981723,0.315
0.180560604894066,-0.17727176999874,0.316
0.192095263641905,-0.199690494271694,0.317
0.201831640100763,-0.219615467390307,0.318
0.209923454771148,-0.237080223658159,0.319
0.216475668603481,-0.252209073584417,0.32
0.221500103947979,-0.265042271479165,0.321
0.225108180425721,-0.275719815807748,0.322
0.227486684596841,-0.284376904828352,0.323
0.228731973854891,-0.291165956607479,0.324
0.22886823226658,-0.29615445212407,0.325
0.228102285414371,-0.299616459872831,0.326
0.226440368971791,-0.301656174942839,0.327
0.224100593610883,-0.302384655006128,0.328
0.221121451089783,-0.301985031778441,0.329
0.217623938994937,-0.300622485099782,0.33
0.2137014617725,-0.298312700609543,0.331
0.209366097798018,-0.295300961785856,0.332
0.20469647288366,-0.29166501588269,0.333
0.19974580175298,-0.287609353317035,0.334
0.194565170466549,-0.283337252941492,0.335
0.189268907809526,-0.278886386879754,0.336
0.183810959433202,-0.274414566207486,0.337
0.1783567924191,-0.270119639372142,0.338
0.172954968717214,-0.266039108508272,0.339
0.167662855444963,-0.262283024020214,0.34
0.162575209761471,-0.259132929468809,0.341
0.157735682730085,-0.256760300777196,0.342
0.153284266088968,-0.255171045190582,0.343
0.149307097801293,-0.25464346091873,0.344
0.145888599631536,-0.255319841739904,0.345
0.143150177808709,-0.2573069994485,0.346
0.141146645539392,-0.260720978000617,0.347
0.139983686892763,-0.26583351208525,0.348
0.139749787179991,-0.272781336303915,0.349
0.14051882506372,-0.281738390431586,0.35
0.142405923613841,-0.292819901678617,0.351
0.145461299801619,-0.306153695993131,0.352
0.14973539909529,-0.321895287386123,0.353
0.1552588749091,-0.340184813681586,0.354
0.16213538690128,-0.361090816080117,0.355
0.17044036780859,-0.384662478589066,0.356
0.180170604922491,-0.411095624486367,0.357
0.191371998473535,-0.440421381977542,0.358
0.204143801185951,-0.472697970130844,0.359
0.218529329504746,-0.508003120633181,0.36
0.234542482583845,-0.546369181805138,0.361
0.252184454947144,-0.587836570223023,0.362
0.271464420813357,-0.632369522174122,0.363
0.292491967707539,-0.679960807826027,0.364
0.315274935607941,-0.730645542348135,0.365
0.339888380710307,-0.784355822302812,0.366
0.366318398748769,-0.84102056653955,0.367
0.394525696994245,-0.900641557644102,0.368
0.424573487756365,-0.963102361002716,0.369
0.456471709745074,-1.02831132924608,0.37
0.490172987796163,-1.09624421235787,0.371
0.525644346836911,-1.16671259850212,0.372
0.562885180237441,-1.23967894863319,0.373
0.601917197772705,-1.31503477670871,0.374
0.642678063511236,-1.39267332009322,0.375
0.685237913947292,-1.47248266174417,0.376
0.729479934084576,-1.5542695136783,0.377
0.775397648403098,-1.63791816398041,0.378
0.82301640010408,-1.72323819108554,0.379
0.872253273048044,-1.81009721920781,0.38
0.923108256571399,-1.89831057201297,0.381
0.975486647357029,-1.98767640888341,0.382
1.02941424879041,-2.07802552262294,0.383
1.08485930444181,-2.16917698409546,0.384
1.14177205301145,-2.26091274690858,0.385
1.20006859157611,-2.35310873003274,0.386
1.25965586912183,-2.44548012998028,0.387
1.32049765405939,-2.53783875660897,0.388
1.38256292757379,-2.6299575571452,0.389
1.44572701512055,-2.72156456319225,0.39
1.5099280779445,-2.81244886676288,0.391
1.57501231582978,-2.90239144794029,0.392
1.64090364545124,-2.99116990928343,0.393
1.70755648079047,-3.0785461747118,0.394
1.77487067746486,-3.16429933383946,0.395
1.84274684894104,-3.2483061359954,0.396
1.91111336252887,-3.33030003450483,0.397
1.97990161363926,-3.41012937309015,0.398
2.04897762777468,-3.48765997363432,0.399
2.11829859670892,-3.56262719945108,0.4
2.18773985795735,-3.63496877342297,0.401
2.25713541963567,-3.7045636875896,0.402
2.32642241511361,-3.7713359244884,0.403
2.39550227874266,-3.83514081523619,0.404
2.46424871891861,-3.89587012635868,0.405
2.53251033170092,-3.95342878637066,0.406
2.60017487051543,-4.00774745796036,0.407
2.66718270549383,-4.0588163006108,0.408
2.73342719059929,-4.10662942906532,0.409
2.79875434284146,-4.151146298111,0.41
2.86307797778602,-4.19232865220421,0.411
2.92633644571724,-4.23013955938611,0.412
2.98839877417123,-4.26465752276891,0.413
3.04916303051973,-4.29590038233816,0.414
3.10861908809794,-4.32386240276184,0.415
3.16665322722683,-4.34868945631474,0.416
3.22316608506481,-4.37047400533751,0.417
3.27818802973789,-4.38927490813885,0.418
3.33158471229404,-4.40510472889688,0.419
3.3832960648023,-4.41809960141353,0.42
3.43338862450902,-4.42840868406455,0.421
3.48182405474982,-4.43613111178884,0.422
3.5286021500943,-4.44138319836437,0.423
3.57358364695344,-4.44427945576689,0.424
3.61673559424943,-4.4449309637609,0.425
3.65817565351362,-4.44357838271211,0.426
3.69778498680201,-4.44025704183179,0.427
3.73565560417091,-4.43520075885867,0.428
3.77164088469631,-4.42852565325355,0.429
3.80583760423886,-4.42044975618221,0.43
3.83822357426142,-4.41109288646207,0.431
3.86875973709342,-4.40069304412067,0.432
3.89754968531078,-4.3893820389524,0.433
3.92455602906642,-4.37728343093167,0.434
3.94981717658347,-4.36455597711787,0.435
3.97341196336183,-4.35130793054288,0.436
3.99524337892582,-4.33765619696028,0.437
4.01544863046808,-4.32377122533445,0.438
4.03401378743804,-4.30975602404897,0.439
4.05097973779274,-4.29577809868518,0.44
4.06636759661696,-4.28190902140447,0.441
4.08023512276848,-4.26823476273153,0.442
4.09267094980498,-4.25479591368238,0.443
4.10361741543621,-4.24170452059233,0.444
4.11319957452066,-4.22900854321011,0.445
4.1214962169521,-4.21679094245558,0.446
4.12851722362717,-4.20516793465769,0.447
4.134329886599,-4.19414056734384,0.448
4.13900802699772,-4.18370319376607,0.449
4.14264336908314,-4.17390152509009,0.45
4.14528494567637,-4.16477717864249,0.451
4.14703227851875,-4.15632267898398,0.452
4.14798249419131,-4.14856300621785,0.453
4.14820631329635,-4.1414194793444,0.454
4.14776675872166,-4.13491082579033,0.455
4.14672364790666,-4.12904197783982,0.456
4.14520046289162,-4.1237524031974,0.457
4.14330651222806,-4.118976357983,0.458
4.14103511082746,-4.11467643838302,0.459
4.13846218343965,-4.11078702325806,0.46
4.13562168116265,-4.10721485649041,0.461
4.13262051799692,-4.10391155265447,0.462
4.12950756811495,-4.10080159767596,0.463
4.12637053288852,-4.09776885452822,0.464
4.12325603589679,-4.09468133848399,0.465
4.12022103928517,-4.09143103250516,0.466
4.11728588649495,-4.08789510457562,0.467
4.11450000486877,-4.08391985355423,0.468
4.11196521022496,-4.07939286391625,0.469
4.1097058339593,-4.07420351126154,0.47
4.10781428890272,-4.06820567818738,0.471
4.10634185479116,-4.06118353321882,0.472
4.10531767452797,-4.05305481506855,0.473
4.10480202746602,-4.04367811388366,0.474
4.10478765524898,-4.03284054330736,0.475
4.1053022455789,-4.02049098188577,0.476
4.10629229769364,-4.00643245752067,0.477
4.10784759673743,-3.9905699541294,0.478
4.1099467228315,-3.97279621173427,0.479
4.11251017293366,-3.95297789269827,0.48
4.11553937844581,-3.93101957936337,0.481
4.11902819617978,-3.90680882078604,0.482
4.12297473895849,-3.8802138283693,0.483
