Drag (N),Lift (N),Time (s)
-0.936846585772221,4.32882091044743,0
-0.94819524017286,4.31978398363307,0.001
-0.959496009866428,4.3107676956181,0.002
-0.970736943918503,4.30179442277009,0.003
-0.981858880703505,4.29293878970446,0.004
-0.992843007793401,4.28418924226724,0.005
-1.00368231722389,4.27554733242009,0.006
-1.01435325414223,4.26703222626151,0.007
-1.02485130788102,4.25865034531319,0.008
-1.03514745313588,4.25049121332601,0.009
-1.04516597668192,4.24249850777383,0.01
-1.05491850365529,4.23470658395126,0.011
-1.06441341571158,4.22715643912044,0.012
-1.07362244383048,4.21988148222236,0.013
-1.08251600844914,4.21284293205347,0.014
-1.09107732072509,4.20601337688517,0.015
-1.09930209426864,4.19942835464065,0.016
-1.10717350140478,4.19307473810424,0.017
-1.11472366982207,4.18699894454903,0.018
-1.12191890736342,4.18118995005973,0.019
-1.12872387506788,4.17571162399429,0.02
-1.1351828308835,4.17050921954568,0.021
-1.14133440049221,4.16559098971897,0.022
-1.1472104223413,4.16099020063686,0.023
-1.15277409207936,4.15668410644896,0.024
-1.15804164553631,4.1526595894626,0.025
-1.16302913927934,4.14892625283442,0.026
-1.16781761068101,4.14550960526256,0.027
-1.1723745648801,4.14239656918986,0.028
-1.17671600035031,4.13959882588537,0.029
-1.1808661679127,4.13708763164875,0.03
-1.18489767402111,4.13486888512674,0.031
-1.18882374364861,4.1329295530256,0.032
-1.19264133536522,4.13126421875226,0.033
-1.19634927262486,4.12986142344433,0.034
-1.1999819525434,4.12871418525613,0.035
-1.20361507400254,4.12784783866081,0.036
-1.20723329072912,4.12725222186958,0.037
-1.21083962768835,4.12688067497635,0.038
-1.21449677361692,4.1267105959434,0.039
-1.2182370177314,4.12675416441596,0.04
-1.22204882754867,4.12701207399818,0.041
-1.22593337421234,4.12746106184684,0.042
-1.22991167131641,4.12804997259134,0.043
-1.23406948891184,4.12877935288392,0.044
-1.23838835293572,4.12968980937208,0.045
-1.24283639722489,4.13071926909654,0.046
-1.24744113789488,4.13184294173782,0.047
-1.25224666878912,4.13305182915753,0.048
-1.25721853375719,4.1343378873151,0.049
-1.26238392835725,4.13566869472606,0.05
-1.26774555427224,4.13700968970225,0.051
-1.27330883961728,4.13835440402038,0.052
-1.27909103933321,4.13971635696682,0.053
-1.28503347728659,4.1410567014046,0.054
-1.29117790316582,4.14237296100601,0.055
-1.29751684646015,4.14366668387907,0.056
-1.3040159900341,4.14492344837865,0.057
-1.31070545345059,4.14612931453623,0.058
-1.31761866804714,4.14725331825365,0.059
-1.32472146087877,4.14827794838466,0.06
-1.33197000174769,4.1492283432123,0.061
-1.33936953288331,4.15009037904513,0.062
-1.34694307320812,4.15084555942992,0.063
-1.35466473450136,4.15149787111706,0.064
-1.36247050950574,4.15204739957779,0.065
-1.37036584356578,4.15249915076315,0.066
-1.37838563357969,4.15285314859729,0.067
-1.38642676982787,4.15308127075666,0.068
-1.3944867996088,4.1531584174494,0.069
-1.4025610487598,4.15305672094676,0.07
-1.41065061087189,4.15279304370107,0.071
-1.41872002916119,4.15239238676837,0.072
-1.42666733510636,4.15181604709919,0.073
-1.43452560998853,4.15108811635407,0.074
-1.44229698689106,4.15020803944181,0.075
-1.44995227824101,4.14916842622762,0.076
-1.4574192509361,4.14797255410403,0.077
-1.46472636648805,4.14662627555303,0.078
-1.47186134753423,4.1451571800115,0.079
-1.47880399453829,4.14357567756759,0.08
-1.48552619417861,4.14187722446034,0.081
-1.49202104782622,4.1400698160362,0.082
-1.49825992825163,4.13820046383149,0.083
-1.50421470011297,4.13621228007955,0.084
-1.50992705138161,4.13416226773092,0.085
-1.51537649961982,4.13203274094957,0.086
-1.52053527221445,4.12983266687441,0.087
-1.52539082206978,4.12755750205615,0.088
-1.52997572677938,4.12526069873428,0.089
-1.53427113269586,4.12298184485655,0.09
-1.53828294161572,4.12072057227284,0.091
-1.54197733478225,4.11848437717563,0.092
-1.54536036328185,4.11626024635345,0.093
-1.54849419595334,4.11407279217726,0.094
-1.55134386109405,4.11185567982537,0.095
-1.55394653642254,4.10965028876252,0.096
-1.55630516487111,4.10746653905813,0.097
-1.55843882763841,4.10529061148746,0.098
-1.56035920883402,4.10316358070977,0.099
-1.56209684501954,4.10109228197138,0.1
-1.56365133712733,4.09908277435516,0.101
-1.56504351545741,4.09711953595798,0.102
-1.56632186675736,4.09523719653871,0.103
-1.56746943889028,4.09344977467988,0.104
-1.56850608842806,4.09169563607621,0.105
-1.56943418210717,4.09000540606905,0.106
-1.57024503001877,4.08842156585864,0.107
-1.57094189405797,4.08694372883576,0.108
-1.57149715219833,4.08555463121352,0.109
-1.57197331473745,4.08425199555223,0.11
-1.57237430766943,4.08311261402034,0.111
-1.57267609247685,4.08210149735237,0.112
-1.57289930863901,4.08119424602075,0.113
-1.57307520636538,4.08036257445981,0.114
-1.57324616500921,4.0796605750489,0.115
-1.57339068083668,4.07907827237059,0.116
-1.57353651897635,4.07861366059535,0.117
-1.57372130826121,4.07829925434197,0.118
-1.57394256188336,4.07807705156257,0.119
-1.57422271561011,4.07792761570485,0.12
-1.57460736538342,4.07783169036785,0.121
-1.57509019351215,4.07782752584587,0.122
-1.57563225310307,4.0779195035763,0.123
-1.57621376245622,4.07803870553743,0.124
-1.57691841780391,4.07822160473902,0.125
-1.57770190668115,4.07846986632459,0.126
-1.578558864699,4.07875037867731,0.127
-1.57946458580178,4.07901179156436,0.128
-1.58046876132205,4.07927027141118,0.129
-1.5815668541322,4.07950144834275,0.13
-1.58269744512973,4.0797038966195,0.131
-1.58388554150613,4.0798753369726,0.132
-1.5851501038261,4.08000144988945,0.133
-1.58650141126836,4.08005607795145,0.134
-1.58794416903927,4.08004323867983,0.135
-1.58948735014481,4.07996240752853,0.136
-1.59111970217911,4.07980377314314,0.137
-1.59286559290474,4.07953997794317,0.138
-1.59473463600748,4.07918920901985,0.139
-1.59672870172977,4.07875166611351,0.14
-1.59885220163198,4.07821857350972,0.141
-1.60110460094497,4.07758326027444,0.142
-1.60350811894069,4.07685814339897,0.143
-1.6060919581287,4.07604616086704,0.144
-1.60881183322765,4.0751555235533,0.145
-1.61168169052981,4.07413968793474,0.146
-1.61471819365052,4.07304157053962,0.147
-1.61793705554652,4.07187349861872,0.148
-1.62131241570726,4.07063175773835,0.149
-1.62483721422373,4.06931873087142,0.15
-1.62854684548608,4.06796686379614,0.151
-1.63244857664779,4.0665575966998,0.152
-1.63654823289159,4.06508932981302,0.153
-1.64081574899357,4.06356734101395,0.154
-1.64528240972085,4.062026899466,0.155
-1.64994365445389,4.06044276855885,0.156
-1.65479454851625,4.05881252712654,0.157
-1.6598348760063,4.05717088920078,0.158
-1.66504579205221,4.05553693987106,0.159
-1.67041600263583,4.05390383138466,0.16
-1.67593467801562,4.05226148476452,0.161
-1.68159930312493,4.05062139125421,0.162
-1.68739427957122,4.04898250503856,0.163
-1.69330618597989,4.04735264347744,0.164
-1.69934631316583,4.04571517005465,0.165
-1.70552266491696,4.04407125864252,0.166
-1.71182194731358,4.04244480510657,0.167
-1.71819212568193,4.04083741689713,0.168
-1.72471045032613,4.03925965743784,0.169
-1.73132470715898,4.03772887958743,0.17
-1.73803200875493,4.03627703992778,0.171
-1.74482760857556,4.03490607040476,0.172
-1.75173607619177,4.03359332790847,0.173
-1.75878566476265,4.0323725283456,0.174
-1.76593701755441,4.03123650135776,0.175
-1.7731600512277,4.03016939205415,0.176
-1.78047964342583,4.02919149258605,0.177
-1.78792208929792,4.02828727490868,0.178
-1.79540404128952,4.02745093690114,0.179
-1.8029382387876,4.02666495682539,0.18
-1.81049838234763,4.02592242262155,0.181
-1.81808639496229,4.02520412683107,0.182
-1.825677411924,4.02452475898455,0.183
-1.83323207335514,4.02384472073463,0.184
-1.84077838440538,4.02318745921879,0.185
-1.84826388128634,4.02251314445613,0.186
-1.85567651323247,4.02185219666058,0.187
-1.86301390109709,4.02115250724726,0.188
-1.87027981593696,4.02044685821529,0.189
-1.87742668199665,4.0196995397472,0.19
-1.88448037123224,4.01889515270401,0.191
-1.89142777238123,4.0180479298797,0.192
-1.89827554222905,4.01714615976287,0.193
-1.90501708946613,4.016214942285,0.194
-1.91163120934228,4.01523884411552,0.195
-1.91816425885973,4.01426313612074,0.196
-1.92456804303094,4.01325007541561,0.197
-1.93086567608044,4.0122032488828,0.198
-1.93702418836486,4.01114492647446,0.199
-1.94304570084942,4.01005152762127,0.2
-1.94892162403707,4.00892721457735,0.201
-1.95466216290078,4.00775153569206,0.202
-1.96027189347668,4.00654612808847,0.203
-1.96570841820676,4.00528256042899,0.204
-1.97100227059353,4.00397739929193,0.205
-1.97614724160611,4.00264817869124,0.206
-1.98116733622492,4.00128146440072,0.207
-1.98607743964005,3.99986770979929,0.208
-1.99088008123735,3.99840331218725,0.209
-1.99560613281989,3.99690974720137,0.21
-2.00021922419018,3.9953607240985,0.211
-2.00477139798629,3.99374392548243,0.212
-2.00926923427812,3.9920936996984,0.213
-2.01370498972382,3.99041076909144,0.214
-2.01808963990336,3.98873534230444,0.215
-2.02240242746314,3.98702270080063,0.216
-2.02668336237297,3.98533532480093,0.217
-2.03092556802618,3.9836273847185,0.218
-2.03514086744575,3.98190491585332,0.219
-2.03931022152888,3.98021282680436,0.22
-2.04344087750007,3.97856098326333,0.221
-2.04753642504901,3.9769556994027,0.222
-2.0515907536346,3.97539528984048,0.223
-2.05564803576115,3.97386478322713,0.224
-2.05971529868751,3.97242276274607,0.225
-2.06376355930991,3.97104148185578,0.226
-2.06784346230178,3.96971168735521,0.227
-2.07195499222881,3.96844605104279,0.228
-2.07610496374235,3.96727550856588,0.229
-2.0802847350806,3.96619041073316,0.23
-2.08448730521972,3.96520041273833,0.231
-2.08876863891712,3.96428770533768,0.232
-2.09310458120673,3.96345819699212,0.233
-2.09746938002672,3.96271236150521,0.234
-2.10186022352871,3.9620585165084,0.235
-2.10627631401085,3.96147559331044,0.236
-2.11072039607779,3.96096043326807,0.237
-2.11517940159632,3.96048889764695,0.238
-2.11963238098103,3.96007260847856,0.239
-2.12407138908249,3.95969113895027,0.24
-2.12848853340128,3.95934488784259,0.241
-2.13287716432381,3.9590164353064,0.242
-2.13722941061972,3.95868724453263,0.243
-2.14152501737948,3.95835276889939,0.244
-2.14574924751917,3.95800796424776,0.245
-2.14990980916915,3.95763900568527,0.246
-2.15398997483391,3.95725685898164,0.247
-2.15799543909852,3.95684253539045,0.248
-2.16191757676868,3.95637833186334,0.249
-2.16575349934427,3.95586902206679,0.25
-2.16951937385893,3.95530438396755,0.251
-2.1731815697573,3.95466348245551,0.252
-2.17673162008701,3.95396792311251,0.253
-2.18016916071941,3.95320378051802,0.254
-2.18350670357155,3.95238086849751,0.255
-2.18673099679219,3.95148552506686,0.256
-2.18984172636526,3.95052566584431,0.257
-2.1928319971616,3.94949751211103,0.258
-2.19571996430307,3.9483683757306,0.259
-2.19850416106655,3.94713321583771,0.26
-2.20117321007458,3.94580397790881,0.261
-2.20373264615191,3.94440104544834,0.262
-2.20620331599095,3.94291729763588,0.263
-2.20858447220974,3.94135643171624,0.264
-2.21088898733104,3.9397159612041,0.265
-2.2130878972598,3.93800383459793,0.266
-2.21518974204695,3.9362183212512,0.267
-2.21719277899011,3.93434571807159,0.268
-2.21912880582461,3.9323954971769,0.269
-2.22096473419649,3.93037727312436,0.27
-2.2227128577575,3.92829893508148,0.271
-2.22438954754046,3.92617341494751,0.272
-2.22599808606841,3.92397128779024,0.273
-2.227518509908,3.92171541645203,0.274
-2.22895050143021,3.91939874673824,0.275
-2.23029295338941,3.91703653223381,0.276
-2.23156454293845,3.91463959040748,0.277
-2.23275424992834,3.9121869415237,0.278
-2.23384566581661,3.90970291954631,0.279
-2.23488325569593,3.90720095179857,0.28
-2.23585136984219,3.90468842606687,0.281
-2.23677963235232,3.90217197345358,0.282
-2.23766968810099,3.89969239368205,0.283
-2.23852762704568,3.89722122716979,0.284
-2.23938933482034,3.89479653866209,0.285
-2.24023691479039,3.8924031657046,0.286
-2.24109940319615,3.89006473095459,0.287
-2.24198526952173,3.88777262436106,0.288
-2.24290337140724,3.88556105361935,0.289
-2.24386424002706,3.88340854149915,0.29
-2.2448908886705,3.88132382778645,0.291
-2.24595439415128,3.87931807511261,0.292
-2.24705833130485,3.8773692963157,0.293
-2.24819752264429,3.87548939781237,0.294
-2.24936056368754,3.87366688477863,0.295
-2.25053861798719,3.87191856728432,0.296
-2.25169829611317,3.87020884648453,0.297
-2.25285530193256,3.86855682033175,0.298
-2.25398058741948,3.86696427587229,0.299
-2.25507592357507,3.8654149221488,0.3
-2.25613562483251,3.86391966862426,0.301
-2.25716420277236,3.8624441457196,0.302
-2.25815178072183,3.86100265794156,0.303
-2.2590881988109,3.85959820692406,0.304
-2.2599988741714,3.85822434773374,0.305
-2.26087332490905,3.85686085649406,0.306
-2.26172646785141,3.85551031541903,0.307
-2.26253945548737,3.85418348389673,0.308
-2.26331326444855,3.85287995433574,0.309
-2.2640628121347,3.85161902490201,0.31
-2.26477564534437,3.85038433767336,0.311
-2.2654673391094,3.84919261848041,0.312
-2.26611371521857,3.84805476190741,0.313
-2.26672714322262,3.84695576116756,0.314
-2.2673127939883,3.84592666911502,0.315
-2.26785270579844,3.84493680192607,0.316
-2.2683647965532,3.84402839617741,0.317
-2.2688405880289,3.84315263942597,0.318
-2.26927527074868,3.84234635847045,0.319
-2.26965646311462,3.84163255663506,0.32
-2.26999310794913,3.84099016721929,0.321
-2.27027483708314,3.84042352985103,0.322
-2.27051352834677,3.83993818656477,0.323
-2.2707143797512,3.83954182464876,0.324
-2.27084979335024,3.83922725324466,0.325
-2.27094174046067,3.83899096235918,0.326
-2.27100159053728,3.83884902473567,0.327
-2.27101508841652,3.83880462457906,0.328
-2.27100069982293,3.83887388723485,0.329
-2.27094791893215,3.83905455351825,0.33
-2.27086655752443,3.8393382032075,0.331
-2.27078282520803,3.83974525041581,0.332
-2.27067627279938,3.84026961600583,0.333
-2.27054979952868,3.84090561884918,0.334
-2.27043553657862,3.84165331558065,0.335
-2.27033762371427,3.84249118098075,0.336
-2.27025496576802,3.84343571231634,0.337
-2.27017650232627,3.84449593138389,0.338
-2.27011282049956,3.84566696573807,0.339
-2.27007692526475,3.84695930275064,0.34
-2.27008445177782,3.84838566937443,0.341
-2.27011885904236,3.84993183379283,0.342
-2.27017669906993,3.85158594658871,0.343
-2.2702763737432,3.85335010384943,0.344
-2.27042015777491,3.85521697026038,0.345
-2.27061152111664,3.85718633977671,0.346
-2.27084877698687,3.85923333042394,0.347
-2.27114693706356,3.86135003354645,0.348
-2.27149332063694,3.86352607064352,0.349
-2.2718764195953,3.86576703114595,0.35
-2.27229948786716,3.86802446235459,0.351
-2.27277216835751,3.8703072722638,0.352
-2.27330299882709,3.87261690580828,0.353
-2.27387585257525,3.87492913203936,0.354
-2.2744744859897,3.87724493497012,0.355
-2.27511933439293,3.87951248347689,0.356
-2.27581571095948,3.88173100354486,0.357
-2.27654026272047,3.88391973750771,0.358
-2.27729240527916,3.88602727804851,0.359
-2.27806663427577,3.88807053470864,0.36
-2.27888316787384,3.89005879682581,0.361
-2.27973910371192,3.89195117043562,0.362
-2.28062518981091,3.89373777019091,0.363
-2.2815463613571,3.89540817280803,0.364
-2.28250730850409,3.89694608302181,0.365
-2.2835087572997,3.89838536032379,0.366
-2.28456406586663,3.89971788026249,0.367
-2.28566701340667,3.90094437151174,0.368
-2.28683698761665,3.90208313869238,0.369
-2.28806241453691,3.9031241613642,0.37
-2.28934241379902,3.90406887555457,0.371
-2.29069332787111,3.90491463125027,0.372
-2.29208180870332,3.90565324530839,0.373
-2.29351143160636,3.9063189703941,0.374
-2.29499079478136,3.90690206605397,0.375
-2.29651081850149,3.90741058100385,0.376
-2.29807429608607,3.9078366540389,0.377
-2.29965873700943,3.90819941029149,0.378
-2.30125386084239,3.90851137390353,0.379
-2.30287517065934,3.90876599886252,0.38
-2.30449839039246,3.9089772868705,0.381
-2.30611578697086,3.90912929139218,0.382
-2.30773292841948,3.9092338463432,0.383
-2.30935221265355,3.90929474539287,0.384
-2.31093807987385,3.90930509173413,0.385
-2.31247345278501,3.90925814777125,0.386
-2.31396548959815,3.90917488806442,0.387
-2.31538926443054,3.9090321706471,0.388
-2.3167303738702,3.90881955331153,0.389
-2.31797585883536,3.90857997356093,0.39
-2.31908154420938,3.90828970327792,0.391
-2.3200446533058,3.90796722638665,0.392
-2.32087151231138,3.90761454385227,0.393
-2.32154956213002,3.90720899320772,0.394
-2.32208801241005,3.90675392048721,0.395
-2.32246695615783,3.90625874587717,0.396
-2.32268562813468,3.90572441890305,0.397
-2.32274975565469,3.90518383932035,0.398
-2.32266235475771,3.90463108733454,0.399
-2.32242173067773,3.90407219668915,0.4
-2.32202903488477,3.90353742722957,0.401
-2.32146085402079,3.90300227701526,0.402
-2.32071793026917,3.90250870986412,0.403
-2.31982218232473,3.90205871852005,0.404
-2.31875586544865,3.90161539681372,0.405
-2.31750436065526,3.90122109513804,0.406
-2.31605577494171,3.90087290000607,0.407
-2.31441191882063,3.90057237511919,0.408
-2.31258120237994,3.90031179121548,0.409
-2.31056187241053,3.90008283778514,0.41
-2.30832441629068,3.89985405936042,0.411
-2.30587999338003,3.89967562240338,0.412
-2.30323509299479,3.89953858357754,0.413
-2.3003883339156,3.89939714483466,0.414
-2.29733254923565,3.89929154358336,0.415
-2.29406108400432,3.89916670308811,0.416
-2.29059625041739,3.8990365112685,0.417
-2.28694752904227,3.89890409665949,0.418
-2.28311387187466,3.89876384563206,0.419
-2.27910584432149,3.89862866307986,0.42
-2.27494195043736,3.89846909550665,0.421
-2.27065079318331,3.89829417570036,0.422
-2.26625681018934,3.89811308285698,0.423
-2.26175324544142,3.8979230405822,0.424
-2.25716471692781,3.89771040516382,0.425
-2.25252553088387,3.89751836798491,0.426
-2.24783352272158,3.89734757529637,0.427
-2.24309399914683,3.8971823942822,0.428
-2.2383412102063,3.89704192878482,0.429
-2.23358308666327,3.89690892034447,0.43
-2.22885201711783,3.89679070979974,0.431
-2.22416533083192,3.89670465544235,0.432
-2.21951533830106,3.89665395384481,0.433
-2.2149326825526,3.8966688283872,0.434
-2.21043619859351,3.8967641903749,0.435
-2.20602309333131,3.89695101757483,0.436
-2.2017010757024,3.89725487673314,0.437
-2.19749664578789,3.89766969764748,0.438
-2.19342033377821,3.89820594127804,0.439
-2.18947821399771,3.8988592765629,0.44
-2.18566847775714,3.89962470094783,0.441
-2.18199083234495,3.90048680074513,0.442
-2.1784652503697,3.90145576010685,0.443
-2.17510777296679,3.90253754801671,0.444
-2.17190899401562,3.90375473755662,0.445
-2.16887473265604,3.9050852517098,0.446
-2.1660046846539,3.90653630939875,0.447
-2.16328971735579,3.9081210957683,0.448
-2.16071059344777,3.90982755352454,0.449
-2.15828178309968,3.91166994104431,0.45
-2.15601146850633,3.91363723284797,0.451
-2.15389076987248,3.91575552438418,0.452
-2.1518846507646,3.91800213168836,0.453
-2.14997790326028,3.9203589007988,0.454
-2.14818682796331,3.92281799007775,0.455
-2.14650284268174,3.92537268180366,0.456
-2.14488824055907,3.92806560145259,0.457
-2.1433209751989,3.93086831020475,0.458
-2.1418159659207,3.93374956255855,0.459
-2.14035984415486,3.9367651860832,0.46
-2.13893409732154,3.93985978957626,0.461
-2.13749199916924,3.94300425379438,0.462
-2.13604429256136,3.94625174671701,0.463
-2.13457405568,3.94957007048973,0.464
-2.1330501392229,3.95295893695471,0.465
-2.13145833202365,3.95644566684561,0.466
-2.12976461420946,3.95993454189553,0.467
-2.12796782704075,3.96341790034831,0.468
-2.12606615489089,3.96690446329047,0.469
-2.12401880049705,3.97035141889984,0.47
-2.12181809520511,3.97377285939806,0.471
-2.11944298779831,3.97715011306963,0.472
-2.1168763995409,3.98044477981203,0.473
-2.11414923163075,3.98364328184501,0.474
-2.11123528389657,3.98674202790117,0.475
-2.10812716438482,3.98973460258694,0.476
-2.10482370596415,3.99261655490362,0.477
-2.10131510019144,3.99539234901538,0.478
