Drag (N),Lift (N),Time (s)
-0.556,4.394,0
-0.564534614450615,4.38896324380786,0.001
-0.573057731153559,4.38393318779543,0.002
-0.58156859783629,4.37891902408867,0.003
-0.590050286899051,4.37394385181777,0.004
-0.598500276869085,4.36900421708349,0.005
-0.606919020487296,4.36410154710401,0.006
-0.615300897062102,4.35924270125864,0.007
-0.623645244486725,4.35443008031187,0.008
-0.631941738998723,4.34969081436739,0.009
-0.640169625192995,4.3450083201549,0.01
-0.648330590418703,4.34039667141134,0.011
-0.656424869617152,4.33587117514658,0.012
-0.664442484283756,4.33144328749704,0.013
-0.672375479916239,4.32710257417007,0.014
-0.680218993097521,4.32284225412,0.015
-0.687969628156608,4.31867423881511,0.016
-0.69562229253287,4.31459613519545,0.017
-0.70318557279552,4.31062571790666,0.018
-0.710648690188962,4.30676001859929,0.019
-0.717998363781317,4.30301866128507,0.02
-0.725249205811554,4.29938858148845,0.021
-0.732411723686721,4.29587589988114,0.022
-0.739492439113972,4.29249343905728,0.023
-0.74647918374097,4.28923532206541,0.024
-0.753376021734985,4.28610033966498,0.025
-0.760185050688165,4.28309330523571,0.026
-0.766927284616331,4.28022460967406,0.027
-0.773590853880892,4.27748979377926,0.028
-0.780178012342199,4.27489359589038,0.029
-0.786692593208074,4.27242804399204,0.03
-0.79315206503525,4.27009714543849,0.031
-0.799557781444999,4.26789790132718,0.032
-0.805905686831266,4.26582813906176,0.033
-0.812191648047075,4.26388338505429,0.034
-0.818422004181833,4.2620621243165,0.035
-0.824615625152102,4.26037431318077,0.036
-0.830764807522254,4.25881627945933,0.037
-0.836867770447556,4.25737331157173,0.038
-0.84294073642082,4.25603975994807,0.039
-0.848990673579786,4.25481959690755,0.04
-0.855010960354328,4.25371172270643,0.041
-0.860998774568251,4.25270844983516,0.042
-0.866959389292253,4.25179400004528,0.043
-0.872917428773751,4.25096968652304,0.044
-0.878863977092613,4.25024612314459,0.045
-0.884788095292235,4.2496026269978,0.046
-0.890696658003208,4.24903204074414,0.047
-0.896601760592596,4.24853214819165,0.048
-0.902490674404198,4.24809845187021,0.049
-0.908370860077977,4.24772125286776,0.05
-0.914244079484036,4.24738946232073,0.051
-0.920112499181594,4.24709955267937,0.052
-0.925981148301048,4.24685463496574,0.053
-0.931833023215531,4.24664096003991,0.054
-0.93768170791183,4.24645862806574,0.055
-0.943526454017348,4.24630675611281,0.056
-0.949358305255477,4.24617876350037,0.057
-0.955188272970423,4.24607108337613,0.058
-0.961030000948234,4.24597503720719,0.059
-0.966875875287496,4.24588278697208,0.06
-0.972713121893325,4.24579929160823,0.061
-0.978544959158561,4.2457195097029,0.062
-0.984381051754019,4.24563739532256,0.063
-0.990216332424047,4.24555155521576,0.064
-0.996033803398604,4.24545755678565,0.065
-1.00183720614568,4.24535501122701,0.066
-1.00763955094502,4.24524366942161,0.067
-1.01341307789353,4.24511086518605,0.068
-1.01915984121057,4.24494716345746,0.069
-1.02488085910566,4.24474297539548,0.07
-1.03057882160139,4.24450320632276,0.071
-1.03624605041658,4.24423405822075,0.072
-1.04185624452908,4.2439205279247,0.073
-1.04742151196417,4.24357081217087,0.074
-1.05294463211983,4.24318472869264,0.075
-1.05841980829654,4.24275902368386,0.076
-1.06382828484164,4.24229250053993,0.077
-1.06918011511883,4.24178700265071,0.078
-1.07447159288951,4.24124989151143,0.079
-1.07969748912005,4.24068308485507,0.08
-1.08485064663721,4.24008360828148,0.081
-1.08992935079801,4.2394526116912,0.082
-1.09492253142298,4.23880254777313,0.083
-1.09982194935738,4.23811394538619,0.084
-1.10463833045373,4.23740341617079,0.085
-1.10936478614226,4.23666339753754,0.086
-1.11399099281436,4.23589387432326,0.087
-1.11851157410523,4.23509089448061,0.088
-1.12293299231238,4.2342696992517,0.089
-1.12724675201084,4.23344065603164,0.09
-1.1314533967514,4.23260300740795,0.091
-1.13554088281674,4.23175688690714,0.092
-1.13950936577637,4.23089723024613,0.093
-1.14337537406107,4.23003284684948,0.094
-1.14712943789834,4.22914242523701,0.095
-1.15078094252066,4.2282387877701,0.096
-1.15432937153446,4.22732467928134,0.097
-1.15777930116039,4.22639670070479,0.098
-1.16113051688889,4.22546849145156,0.099
-1.16438980645018,4.22454355677694,0.1
-1.16755535876505,4.2236234350177,0.101
-1.17063263389745,4.2227034181972,0.102
-1.17363401650585,4.22179472268598,0.103
-1.17655249358043,4.22090049625533,0.104
-1.17939509589078,4.22000145437989,0.105
-1.18216184760283,4.21910536722295,0.106
-1.1848492143147,4.21822376550218,0.107
-1.18745851842166,4.21735572528544,0.108
-1.1899821823881,4.2164946763599,0.109
-1.19243956118795,4.21564028441412,0.11
-1.19483127618808,4.21481475537035,0.111
-1.19715329622613,4.21400707269075,0.112
-1.19941429710528,4.21321038301238,0.113
-1.20162639150673,4.21241661484323,0.114
-1.203803304613,4.21164339160982,0.115
-1.20594168413768,4.21088850792141,0.116
-1.20805327371059,4.21015349263723,0.117
-1.21015214352959,4.20945025440168,0.118
-1.21224213783266,4.20876286690301,0.119
-1.2143329558035,4.2080877714209,0.12
-1.21644234776868,4.20742178955653,0.121
-1.21857085748333,4.20677824206519,0.122
-1.2207092211518,4.20615942123505,0.123
-1.22285557970737,4.20554564836444,0.124
-1.22503695500046,4.20495248028958,0.125
-1.22724351117257,4.20438133428138,0.126
-1.22947866377288,4.20382388501634,0.127
-1.23173934323596,4.20326565289601,0.128
-1.23404317897303,4.2027146017282,0.129
-1.23639306549582,4.20216497427708,0.13
-1.23877424089047,4.20161658046084,0.131
-1.24119787467295,4.20107138280629,0.132
-1.24367272576377,4.20052744378596,0.133
-1.24620526435521,4.19997882446952,0.134
-1.2487998639586,4.19942846852008,0.135
-1.25146224605982,4.19887818932539,0.136
-1.25419139839367,4.19832555259576,0.137
-1.25699703931246,4.19776292441842,0.138
-1.25988326049343,4.19719677951864,0.139
-1.26285177829371,4.19662848213154,0.14
-1.26590450713074,4.19605594335487,0.141
-1.26904181820249,4.19547631585113,0.142
-1.27227068827716,4.19489317656427,0.143
-1.27560053296964,4.19430800076245,0.144
-1.27901741754729,4.19372164527046,0.145
-1.28252562473462,4.1931187870655,0.146
-1.28612863698562,4.19251171648,0.147
-1.28983098827577,4.19190407949382,0.148
-1.29362421788514,4.19129300955031,0.149
-1.29750564624336,4.19067739741616,0.15
-1.30148518390524,4.19006638873197,0.151
-1.30556501108103,4.18945348820529,0.152
-1.30974590331119,4.18883739866197,0.153
-1.31401729581796,4.18821730323108,0.154
-1.3183871650845,4.18760328427381,0.155
-1.32285442225452,4.18698651829091,0.156
-1.32741658987489,4.18636449177088,0.157
-1.33207197783219,4.18574513126592,0.158
-1.33681402134309,4.18513120282133,0.159
-1.34163829560408,4.18451828831876,0.16
-1.34653982652096,4.18390129152003,0.161
-1.35151633008893,4.1832817366933,0.162
-1.35656260819923,4.18265693791674,0.163
-1.36167356986787,4.18202744388058,0.164
-1.36685182754368,4.18138679150595,0.165
-1.37209883914449,4.180733602993,0.166
-1.37740934006219,4.1800729179639,0.167
-1.38276645113623,4.17940208341146,0.168
-1.38819256185899,4.17872512025859,0.169
-1.3936706471662,4.17804539594279,0.17
-1.39919819983295,4.17737309375449,0.171
-1.40477289032815,4.17670925546799,0.172
-1.41040176404297,4.17604742264125,0.173
-1.41609222387109,4.17539866500396,0.174
-1.42183195428819,4.17476021833525,0.175
-1.42761053865626,4.17412695212707,0.176
-1.43343347896691,4.17350626271418,0.177
-1.43930797445269,4.17289482459274,0.178
-1.44520736579321,4.17228964778315,0.179
-1.45113399849838,4.17168667005412,0.18
-1.45707858793712,4.17108385130959,0.181
-1.4630416207362,4.17047697316956,0.182
-1.46901429841506,4.16987146553157,0.183
-1.47498508928183,4.16925539068011,0.184
-1.48096209729308,4.16863855770251,0.185
-1.48693062126822,4.16800967878831,0.186
-1.49288609343564,4.16737945989856,0.187
-1.49882953685225,4.16673467522421,0.188
-1.50476188607288,4.16608853319706,0.189
-1.51067008179695,4.16543123266153,0.19
-1.51656289865972,4.16476073235254,0.191
-1.52243646370306,4.16408235628668,0.192
-1.528293875275,4.16339364391072,0.193
-1.53413322681841,4.16270301724085,0.194
-1.53994813293213,4.16200653582095,0.195
-1.54575048006412,4.16132091834378,0.196
-1.55152529432386,4.16063518183538,0.197
-1.55727752888748,4.15995269739046,0.198
-1.56299408469345,4.15928099259101,0.199
-1.56867317813711,4.15861433223923,0.2
-1.57430895375357,4.15795397363099,0.201
-1.57990233285747,4.15729345478335,0.202
-1.58545118098377,4.15663908197771,0.203
-1.59094006423182,4.15598040276859,0.204
-1.59637478970047,4.15532163410379,0.205
-1.60175076112359,4.15466655688635,0.206
-1.60707364423363,4.15401083182386,0.207
-1.61234627689859,4.15335021732021,0.208
-1.61756817629761,4.15268165099776,0.209
-1.6227473635803,4.15201104577174,0.21
-1.62787248120962,4.15132825258418,0.211
-1.63295830735869,4.15062883149386,0.212
-1.6380052329426,4.14992113173815,0.213
-1.64301045425332,4.1492036813129,0.214
-1.64797506607138,4.14848763517908,0.215
-1.65289224062319,4.1477572470547,0.216
-1.65777128312344,4.1470305200718,0.217
-1.66261015601994,4.14629118997735,0.218
-1.66741012574894,4.14553914826227,0.219
-1.67216181601712,4.14478533253793,0.22
-1.67686482461165,4.14403143369873,0.221
-1.68151734660193,4.14327815500289,0.222
-1.68611492719364,4.14252308432267,0.223
-1.69066927303827,4.14176048196742,0.224
-1.69517961875727,4.14100643794573,0.225
-1.6996364229233,4.14025013705422,0.226
-1.70405400235389,4.13948804889584,0.227
-1.70843179102331,4.13872249734253,0.228
-1.71277096709009,4.13796255664,0.229
-1.71706887321829,4.1372045840359,0.23
-1.72132318028118,4.13645077604458,0.231
-1.72555255711982,4.13569749762624,0.232
-1.72975075868531,4.1349463884621,0.233
-1.73391081384522,4.1341972203264,0.234
-1.73803280416899,4.13345311424988,0.235
-1.74211844480086,4.13270873107355,0.236
-1.7461696754954,4.1319645001714,0.237
-1.75018387675211,4.13121387626834,0.238
-1.7541552716511,4.13046131569275,0.239
-1.7580829773461,4.12970260933684,0.24
-1.76196540520702,4.12893997851729,0.241
-1.76580141801086,4.12816977683208,0.242
-1.76958995257712,4.1273879272838,0.243
-1.77332628586364,4.12659450408963,0.244
-1.77700705207544,4.12578960070051,0.245
-1.78063582655402,4.12497093093492,0.246
-1.78420835384469,4.12414311067412,0.247
-1.78772816935371,4.12330264857597,0.248
-1.79119407421524,4.12244583388326,0.249
-1.79460584608082,4.12157538677464,0.25
-1.79797017730349,4.12068951788426,0.251
-1.80127888719419,4.11978164791367,0.252
-1.80452962648778,4.11885891599454,0.253
-1.80772267516909,4.11791824123408,0.254
-1.81086163533007,4.11696345086433,0.255
-1.81394350946249,4.11598963335951,0.256
-1.81696826240456,4.11499912827411,0.257
-1.81993374641337,4.11399075544932,0.258
-1.82284614298959,4.11295450614983,0.259
-1.82570516015474,4.11188811201313,0.26
-1.82850727301488,4.11079448734916,0.261
-1.83125374611188,4.10967967533129,0.262
-1.8339513468271,4.10854135485019,0.263
-1.83660032671902,4.10737991734548,0.264
-1.83920507050115,4.10619476975283,0.265
-1.84175670079905,4.10498752561506,0.266
-1.84425799286442,4.10375814443388,0.267
-1.84670889277627,4.10250271594076,0.268
-1.84911924849162,4.10122511879725,0.269
-1.85147837092204,4.09992734970931,0.27
-1.8537892039391,4.09861171491791,0.271
-1.85605636178994,4.09728144380171,0.272
-1.85828089369059,4.09592630702723,0.273
-1.86045476022323,4.09455169043914,0.274
-1.8625762694467,4.09315413404793,0.275
-1.86464289144744,4.09173664050147,0.276
-1.86665847795962,4.09030177225179,0.277
-1.86861861642056,4.08884214703783,0.278
-1.87051552299028,4.08736407899566,0.279
-1.87236074222642,4.08587227584343,0.28
-1.87414830431345,4.08436831603356,0.281
-1.87588632278467,4.08285506140304,0.282
-1.87757395806819,4.08134525545996,0.283
-1.87921352970917,4.07983060954622,0.284
-1.88081521633822,4.07832395369859,0.285
-1.88237454470618,4.07682107720617,0.286
-1.88390024493561,4.07533128683694,0.287
-1.88539582040786,4.07385293245037,0.288
-1.88686373291801,4.07239806104487,0.289
-1.88830769434294,4.07096224038423,0.29
-1.88973412228572,4.06955005218065,0.291
-1.89113403654921,4.06816594168047,0.292
-1.89250921392375,4.06680481018222,0.293
-1.89385802286335,4.06547140262446,0.294
-1.89517775491353,4.0641628365158,0.295
-1.89646582209324,4.06288490969344,0.296
-1.89771326449064,4.06162691637091,0.297
-1.89892471336093,4.0603964104645,0.298
-1.90009205044312,4.05919482168098,0.299
-1.90121760462269,4.05801855996323,0.3
-1.90230115087614,4.05687211263677,0.301
-1.90334680621882,4.05574666134793,0.302
-1.90435343981801,4.05464825602555,0.303
-1.90532012360297,4.05357917324754,0.304
-1.90625734239953,4.05253996757854,0.305
-1.90716514038116,4.05152642453958,0.306
-1.9080506537709,4.05054180066973,0.307
-1.90891042573317,4.04959104662765,0.308
-1.90974675048266,4.04867594644848,0.309
-1.9105653108903,4.04780436553893,0.31
-1.9113640103395,4.04697275551718,0.311
-1.91214833705284,4.04618900136508,0.312
-1.91291137200336,4.04545783749472,0.313
-1.91365746944692,4.04477656358009,0.314
-1.91438764011357,4.04415582044215,0.315
-1.91509735286556,4.04358612504051,0.316
-1.91579107154782,4.04308109261553,0.317
-1.9164675677969,4.04262552232053,0.318
-1.91712413727381,4.04223052467294,0.319
-1.91775588470593,4.0419025750584,0.32
-1.91836616285007,4.04163426691145,0.321
-1.91895263614476,4.0414254731987,0.322
-1.91951930656793,4.04127683026025,0.323
-1.92006810294377,4.0411888950018,0.324
-1.92059167532942,4.04115712564766,0.325
-1.92109737725377,4.04117919534527,0.326
-1.92158870541458,4.0412578150287,0.327
-1.9220614765182,4.04139152354494,0.328
-1.92252081490602,4.04158368041792,0.329
-1.92296355018847,4.04183074782665,0.33
-1.92339288851657,4.04212775625084,0.331
-1.92381612564087,4.04247860056076,0.332
-1.92422661357225,4.04287845119776,0.333
-1.92462440875013,4.04332401785729,0.334
-1.92501840681567,4.04381422254877,0.335
-1.92540957632965,4.04434118709174,0.336
-1.92579642798615,4.04490908268167,0.337
-1.92617450725056,4.04551933075241,0.338
-1.92654621807199,4.04616978044081,0.339
-1.92691470550408,4.04686304734521,0.34
-1.92728386784882,4.04760216666064,0.341
-1.92764868945578,4.04838122814831,0.342
-1.92800847478103,4.04919558920901,0.343
-1.92836892344453,4.05004599271496,0.344
-1.92873149657229,4.05093015700878,0.345
-1.92909809223932,4.05184774887885,0.346
-1.92946939143427,4.05279096549086,0.347
-1.92985051060521,4.05375781005575,0.348
-1.93023835057218,4.05474509881044,0.349
-1.93062988174455,4.05575468089009,0.35
-1.93102807236122,4.05677261916227,0.351
-1.93143589589588,4.0578025218895,0.352
-1.93185587791778,4.05884526552363,0.353
-1.93228429887487,4.05989335653945,0.354
-1.93271700005142,4.06094707977209,0.355
-1.93316166051439,4.06199181535094,0.356
-1.93361961094311,4.06302808288159,0.357
-1.93408344336636,4.06406112157746,0.358
-1.93455492220225,4.06507581405079,0.359
-1.93503205186905,4.06607849969241,0.36
-1.93552010496402,4.06707343187134,0.361
-1.93601871225676,4.0680494715167,0.362
-1.93652512849346,4.06900493769723,0.363
-1.93704038334619,4.06993767718188,0.364
-1.93756499453915,4.07084423236221,0.365
-1.93809637929195,4.07173587933312,0.366
-1.93863691677358,4.07261042165197,0.367
-1.93918329877577,4.07346801839321,0.368
-1.93973900728645,4.07431459716142,0.369
-1.94029816039035,4.07514622120443,0.37
-1.94085762233451,4.07596228550305,0.371
-1.94141977862876,4.0767607155904,0.372
-1.94197242285764,4.07753570045047,0.373
-1.9425131934213,4.07829524587684,0.374
-1.9430421581397,4.07903437331338,0.375
-1.94355396891045,4.07975288025404,0.376
-1.9440477024239,4.08044606565298,0.377
-1.9445145221682,4.08111660691999,0.378
-1.94495023238679,4.08176600704237,0.379
-1.94535913551014,4.08239105179836,0.38
-1.94573290597428,4.08299296987331,0.381
-1.94606966122224,4.08356469062494,0.382
-1.94637059463509,4.08410851196269,0.383
-1.94663537450723,4.08462302867312,0.384
-1.94685294319955,4.08510292530788,0.385
-1.94701842889281,4.08554430502132,0.386
-1.94713335038521,4.08595233357855,0.387
-1.94719043628811,4.08631872731809,0.388
-1.94718504417385,4.08663978050061,0.389
-1.94711156883215,4.08692745938647,0.39
-1.94695677290937,4.08717262086764,0.391
-1.94671858602071,4.0873805685912,0.392
-1.9463983920077,4.08755153380588,0.393
-1.94599291597138,4.0876788323242,0.394
-1.94550456029617,4.0877652558796,0.395
-1.94492726703781,4.08781429001893,0.396
-1.94426183142178,4.08782731104618,0.397
-1.94351043873208,4.08781560829375,0.398
-1.94267529879918,4.08777888985364,0.399
-1.94175707312571,4.08772031387985,0.4
-1.94075747126465,4.0876497829813,0.401
-1.93967268814162,4.08756021203273,0.402
-1.93850450577396,4.08746599228452,0.403
-1.93726147159305,4.08736973782701,0.404
-1.93594089363902,4.08726154920744,0.405
-1.93453918416139,4.0871559956814,0.406
-1.93305470616436,4.08705403235173,0.407
-1.93148946719929,4.08695881259164,0.408
-1.92984704300888,4.08687071161972,0.409
-1.92812740723852,4.0867895829447,0.41
-1.92632262839989,4.08670794625777,0.411
-1.92443502850334,4.08664380933657,0.412
-1.92246652543451,4.08659645347144,0.413
-1.9204173164227,4.08655432038283,0.414
-1.91828385578455,4.08653174997321,0.415
-1.91606555122008,4.08651374034735,0.416
-1.91376880003126,4.08650770571667,0.417
-1.9113959667434,4.08651668663319,0.418
-1.90894632688746,4.08654084404766,0.419
-1.90642259581835,4.08658685622287,0.42
-1.90383120130046,4.08664743350563,0.421
-1.90118054511679,4.0867270495556,0.422
-1.89847776302418,4.08683042572379,0.423
-1.89572064970964,4.08695750319422,0.424
-1.892916611459,4.08710567499425,0.425
-1.89007462839401,4.08728963930459,0.426
-1.88719364446214,4.08750938860999,0.427
-1.88427505204202,4.08776006420163,0.428
-1.88132787048696,4.08804832730227,0.429
-1.87835353928179,4.08836885707888,0.43
-1.8753599985841,4.08872422374382,0.431
-1.87235009601492,4.08911954832826,0.432
-1.86931921094653,4.08955411707782,0.433
-1.8662736690905,4.09003608711107,0.434
-1.86321658048172,4.09056885117193,0.435
-1.86014441394985,4.09115342476557,0.436
-1.8570564477348,4.0917958813772,0.437
-1.85395872980805,4.09249354809829,0.438
-1.85085230416102,4.09324740064789,0.439
-1.84773773387023,4.09405375037577,0.44
-1.8446137033849,4.09490873671049,0.441
-1.84147971203202,4.09580502854176,0.442
-1.83834109288155,4.0967439813331,0.443
-1.835202656071,4.09772602431468,0.444
-1.83206111000723,4.09875579462964,0.445
-1.82891932208086,4.09982494669816,0.446
-1.82577772785651,4.10093403328314,0.447
-1.82263409596672,4.1020852140999,0.448
-1.81948416331657,4.10327351009206,0.449
-1.81633346866316,4.10450312092203,0.45
-1.81318646267138,4.10577001104966,0.451
-1.81004155219064,4.10708144455586,0.452
-1.80689070613511,4.10842953503406,0.453
-1.80373210130275,4.10980811129018,0.454
-1.80057346138036,4.11121576752992,0.455
-1.79741529205593,4.11265122365827,0.456
-1.79424784356528,4.11412722078748,0.457
-1.79106793267261,4.115635594028,0.458
-1.78788414633828,4.11716803455725,0.459
-1.78469434812105,4.11874177131681,0.46
-1.78149751329704,4.12034095518108,0.461
-1.77828308556997,4.12195728746319,0.462
-1.77505551360265,4.12360862997203,0.463
-1.7718130400108,4.12528614143011,0.464
-1.76854868310675,4.12699020741167,0.465
-1.7652594505606,4.12872950058757,0.466
-1.76193933483436,4.13047491331119,0.467
-1.75858957178743,4.13222533277422,0.468
-1.75521027024311,4.13398402144922,0.469
-1.75179056843453,4.13573694237403,0.47
-1.74832789666752,4.13748776945462,0.471
-1.74481679883246,4.13922927477139,0.472
-1.74125355578685,4.14094891834994,0.473
-1.73764797044834,4.14264366193745,0.474
-1.73399207826659,4.14431128658905,0.475
-1.73028350457799,4.14594875141897,0.476
-1.72652179184022,4.14755375728332,0.477
