Drag (N),Lift (N),Time (s)
0.493,-0.602,0
0.504793191519912,-0.592257789419853,0.001
0.516569894499035,-0.582541856338131,0.002
0.528319294014896,-0.57287790989484,0.003
0.540028887781298,-0.563268551290402,0.004
0.551684567905021,-0.553726424039164,0.005
0.563275515607162,-0.544279650227792,0.006
0.574784047256528,-0.534929909020882,0.007
0.586200131092584,-0.52567936441635,0.008
0.597512786310199,-0.516561266023171,0.009
0.608704887188577,-0.50758098542778,0.01
0.619761483751751,-0.498734939991265,0.011
0.630671499980933,-0.490046435621242,0.012
0.641428404305162,-0.481526427965588,0.013
0.652014624874263,-0.47316977602725,0.014
0.66242255056528,-0.464999966935963,0.015
0.672644689318392,-0.457025426125603,0.016
0.682669299104178,-0.449242072061384,0.017
0.692493084692711,-0.441674306018397,0.018
0.702118329683572,-0.434328745751655,0.019
0.711532332063608,-0.427197173924209,0.02
0.720730269616758,-0.420290430505918,0.021
0.729714447503872,-0.413617855671124,0.022
0.738480763676539,-0.407173285560185,0.023
0.747028539503188,-0.400969532143068,0.024
0.755357646423138,-0.39500202036507,0.025
0.763466088434003,-0.389278554619295,0.026
0.771351306995627,-0.383806038866868,0.027
0.779017332316369,-0.378583675304732,0.028
0.786463102548246,-0.373610059584624,0.029
0.793689739674017,-0.368887177358001,0.03
0.800697540875697,-0.36441034174415,0.031
0.807487349682734,-0.360174082038965,0.032
0.814061889995275,-0.356179886527151,0.033
0.820420083236218,-0.352431961890832,0.034
0.826561982583025,-0.348916706315881,0.035
0.832494656095539,-0.345634321457047,0.036
0.838218222683481,-0.342584955719857,0.037
0.843731535834447,-0.339759478401247,0.038
0.849036169948488,-0.337152584770549,0.039
0.854137903533251,-0.334764652605578,0.04
0.859037314889768,-0.332581759418191,0.041
0.863741567534894,-0.330587144786619,0.042
0.86824940792104,-0.328783359143813,0.043
0.872566769616087,-0.327159263133864,0.044
0.876693224163855,-0.325705538313762,0.045
0.880631202285726,-0.324415219058848,0.046
0.884388647790945,-0.323280368686789,0.047
0.887963989654517,-0.322278986209467,0.048
0.89135217588906,-0.321405469822761,0.049
0.894560302757416,-0.320656519682409,0.05
0.897595234554,-0.320023246151433,0.051
0.900460565944488,-0.319494739850979,0.052
0.903153608745516,-0.319062055497753,0.053
0.905674924856135,-0.318707488166301,0.054
0.908034911151915,-0.318417888031224,0.055
0.910243139404104,-0.318199329151742,0.056
0.912300241843583,-0.318036139524744,0.057
0.914211121289636,-0.317921987413903,0.058
0.915986554114524,-0.317853650220609,0.059
0.917636051787334,-0.317820212096025,0.06
0.919162519997127,-0.317806731100932,0.061
0.920575936913002,-0.317816544473993,0.062
0.921887725372736,-0.317844750777174,0.063
0.923106536179821,-0.317886949584299,0.064
0.92423622554508,-0.317938533522701,0.065
0.925290952306455,-0.317990594312193,0.066
0.926281712508645,-0.318039603654321,0.067
0.927213391646221,-0.318076662391224,0.068
0.928096249050952,-0.318105051280889,0.069
0.928941728696258,-0.318115286805246,0.07
0.929753076524662,-0.318111582597163,0.071
0.930541124713982,-0.318089136687765,0.072
0.931317446806192,-0.318043034222836,0.073
0.932090864623561,-0.317976473756994,0.074
0.932873190203752,-0.317889699821104,0.075
0.933668690578361,-0.317782041814983,0.076
0.934486786060344,-0.317656112178788,0.077
0.935338942221882,-0.317506822833006,0.078
0.936235512590313,-0.317335420174336,0.079
0.937182311025404,-0.317142150272415,0.08
0.938185789478227,-0.316932493857914,0.081
0.939250749516893,-0.316705662063097,0.082
0.940379889758794,-0.316460176305111,0.083
0.941581519313475,-0.316206973038449,0.084
0.942857059827344,-0.315948376187642,0.085
0.94420765728396,-0.315674150063592,0.086
0.945639564422154,-0.31539837027924,0.087
0.947150900073015,-0.315121741556946,0.088
0.948741632047992,-0.314842470785555,0.089
0.950422568884619,-0.314565371972893,0.09
0.952195117072281,-0.314289936641846,0.091
0.954059025950994,-0.314016809603989,0.092
0.956013041192609,-0.313753984558387,0.093
0.958066890285159,-0.313517484482154,0.094
0.960220330632947,-0.313302968230956,0.095
0.962475250795484,-0.313108033281196,0.096
0.9648370087256,-0.312936600388077,0.097
0.967302359695339,-0.312790046047116,0.098
0.969866385447666,-0.312669603890047,0.099
0.972533696843539,-0.312585791925127,0.1
0.975301808796604,-0.312536904099083,0.101
0.978168101131956,-0.312515780319018,0.102
0.981127085814303,-0.312518196886983,0.103
0.984174925056641,-0.31254442653859,0.104
0.987307601005533,-0.312595290835748,0.105
0.990513010150805,-0.312667219068663,0.106
0.993785663127852,-0.312757482614001,0.107
0.997126182742502,-0.312872161033388,0.108
1.00052397671944,-0.31301134612377,0.109
1.00396762228168,-0.31316506668173,0.11
1.0074529494228,-0.313339986543588,0.111
1.01097979251499,-0.313538818893188,0.112
1.01453979159783,-0.313751365390722,0.113
1.01812370070046,-0.313977569618012,0.114
1.02172888327243,-0.314224779138492,0.115
1.02535504210875,-0.314487222312534,0.116
1.02899993904776,-0.314760334372198,0.117
1.032654818289,-0.315041021291165,0.118
1.0363131382433,-0.315322390871891,0.119
1.03996634062495,-0.315605493608305,0.12
1.04361512425348,-0.315892161431578,0.121
1.0472546535346,-0.316176327068784,0.122
1.05087647578463,-0.316456689369791,0.123
1.05448207672987,-0.316740951522272,0.124
1.05806440856086,-0.317011976972996,0.125
1.06161581143584,-0.317273178177023,0.126
1.06513874309594,-0.317526173999522,0.127
1.06863551442824,-0.317766707182663,0.128
1.07210824611931,-0.317994323015277,0.129
1.07555958691192,-0.318213653725252,0.13
1.07899762532209,-0.31842231381555,0.131
1.08242929972304,-0.318621309544202,0.132
1.08586851651196,-0.318812642652484,0.133
1.08932523595218,-0.318995387137198,0.134
1.09281297318529,-0.319163995681941,0.135
1.09634684708013,-0.319324292864264,0.136
1.09994276905171,-0.319477770579862,0.137
1.10361372403146,-0.319627832087544,0.138
1.10737327239488,-0.319776214915475,0.139
1.1112361663407,-0.319927338282145,0.14
1.11521877463207,-0.320076609937798,0.141
1.11933279238442,-0.320228164033173,0.142
1.12358510325413,-0.320390262957938,0.143
1.12798737768293,-0.320562929003713,0.144
1.13254791283321,-0.320748685105354,0.145
1.13728127834614,-0.320953121005845,0.146
1.14219138287216,-0.321176475825738,0.147
1.14728086757041,-0.321420064338371,0.148
1.1525602652863,-0.321688462015255,0.149
1.1580431445708,-0.321980893853108,0.15
1.16373159565414,-0.322301323680804,0.151
1.16962871068508,-0.322642465447195,0.152
1.17573826164339,-0.323012034097675,0.153
1.18207204216259,-0.32340919683754,0.154
1.18863475225351,-0.32384503616053,0.155
1.19542411802296,-0.324315687003697,0.156
1.2024417440531,-0.324818083202371,0.157
1.20969178280305,-0.325359946655968,0.158
1.21717520697918,-0.325937500410728,0.159
1.22488508748333,-0.326546600167622,0.16
1.23281431328548,-0.327187519252207,0.161
1.24096678674862,-0.32786136045865,0.162
1.24932675124642,-0.328562078962047,0.163
1.25788260911285,-0.329289153141231,0.164
1.26662060781978,-0.330032970578784,0.165
1.27553540848152,-0.330795999349447,0.166
1.28460681643848,-0.331585184665273,0.167
1.2938239294555,-0.33239082054365,0.168
1.30316992696295,-0.333209179659984,0.169
1.31263093147703,-0.33403733438735,0.17
1.32218718983719,-0.334878116279438,0.171
1.33182538787527,-0.33572382476824,0.172
1.34152692250275,-0.336574359822718,0.173
1.35127099722512,-0.33743457054265,0.174
1.36103747215144,-0.338297693912574,0.175
1.3708027101172,-0.339158969214474,0.176
1.38055210332426,-0.340022739470776,0.177
1.39026137550525,-0.340878354961703,0.178
1.39990441999935,-0.341723060115249,0.179
1.4094585090438,-0.342561317964254,0.18
1.41890354240402,-0.343388413848301,0.181
1.4282192556516,-0.344209727517772,0.182
1.43738267287274,-0.345020057440758,0.183
1.44638203798641,-0.345819869758307,0.184
1.45520076980441,-0.346604587218666,0.185
1.46382581341705,-0.347372510465789,0.186
1.47224356770486,-0.348133608907646,0.187
1.4804441264653,-0.348877312966047,0.188
1.4884284264245,-0.349615815667048,0.189
1.49619645990586,-0.350342057799997,0.19
1.50373868312437,-0.351063463957695,0.191
1.51104943692925,-0.351782025004469,0.192
1.51813859163873,-0.352503789502064,0.193
1.52501261351384,-0.353232972410122,0.194
1.53166289592673,-0.353957141973228,0.195
1.53809390742004,-0.354671578231809,0.196
1.54430729006,-0.3553918307249,0.197
1.55030504549141,-0.356130534997905,0.198
1.55608917944267,-0.3568819019825,0.199
1.56166886535618,-0.357659073483461,0.2
1.56703473175489,-0.358455898024812,0.201
1.57218958651899,-0.359279651337812,0.202
1.57714160440352,-0.360143840895076,0.203
1.58190334132973,-0.361053241031837,0.204
1.5864814356506,-0.361998388718835,0.205
1.59088725354645,-0.362992848019362,0.206
1.5951478329881,-0.364049710709717,0.207
1.59928087017301,-0.365159121817945,0.208
1.60329964612656,-0.36631726483605,0.209
1.60722938311476,-0.36754853671809,0.21
1.61109475628203,-0.368850634519249,0.211
1.61491633011713,-0.370218778683967,0.212
1.61871521016355,-0.371667559751836,0.213
1.6225187470979,-0.373202728746399,0.214
1.62635283508756,-0.374825060430967,0.215
1.6302342673361,-0.376537482307997,0.216
1.63416940378793,-0.378337602247227,0.217
1.63817765693461,-0.380238490829989,0.218
1.64228639348141,-0.382250057885575,0.219
1.64651268731062,-0.384363271607866,0.22
1.65087495114538,-0.386578916324172,0.221
1.65538735999929,-0.388904076137582,0.222
1.66006931402951,-0.391343759714275,0.223
1.66494492484245,-0.393894082346979,0.224
1.6700234180418,-0.396547287620744,0.225
1.67532415662476,-0.399316008635448,0.226
1.68086750424974,-0.402201991066921,0.227
1.68665911585044,-0.405193276851814,0.228
1.69270732570996,-0.408284374236081,0.229
1.69901423925196,-0.411473205068054,0.23
1.7055817607151,-0.414747283548866,0.231
1.71240239471202,-0.418100009823705,0.232
1.71946574284652,-0.421527009363981,0.233
1.72674810323127,-0.425030488970694,0.234
1.73423769244376,-0.428594660198242,0.235
1.74191762711135,-0.43221432987781,0.236
1.74975888624369,-0.435885073525353,0.237
1.75773211169112,-0.439601876002161,0.238
1.76581153689995,-0.443340904707602,0.239
1.7739803324536,-0.447093421283908,0.24
1.7822127797294,-0.450850106454283,0.241
1.79047543294768,-0.45459517002718,0.242
1.79873876418511,-0.458325764445564,0.243
1.8069851488054,-0.462024887495371,0.244
1.81520247873255,-0.465679936757278,0.245
1.82335859332338,-0.469282880566538,0.246
1.83142051866786,-0.472815886584849,0.247
1.83937914060787,-0.476270183619699,0.248
1.84721689501597,-0.479631471143924,0.249
1.8549144332741,-0.482897511454384,0.25
1.8624487656273,-0.486063404839286,0.251
1.86980913229261,-0.489110024117725,0.252
1.87698413603719,-0.492041788617042,0.253
1.88396592640007,-0.494841015547909,0.254
1.89073824253763,-0.497506591156116,0.255
1.89728861930964,-0.500022667815462,0.256
1.90361825056774,-0.502399479407151,0.257
1.9097261077257,-0.504620237577494,0.258
1.91560209136932,-0.50667903354849,0.259
1.92124109417239,-0.508574732267501,0.26
1.92665458142787,-0.510310353853443,0.261
1.93184069080189,-0.511891081899741,0.262
1.93679524513034,-0.513317376354395,0.263
1.94153763537605,-0.514599191839942,0.264
1.94607337155178,-0.515733687747974,0.265
1.95040956264969,-0.516734140672102,0.266
1.95455630662875,-0.517612317461514,0.267
1.95854008395704,-0.5183604523491,0.268
1.96236109523466,-0.518993313915185,0.269
1.96603765199324,-0.519527742911278,0.27
1.96958564007775,-0.51997010389038,0.271
1.97302404408443,-0.520324457959354,0.272
1.97636349938499,-0.520605784320646,0.273
1.97962265687433,-0.520826359874741,0.274
1.98282113098777,-0.520984132167806,0.275
1.98597626072973,-0.52109430676273,0.276
1.98911302967227,-0.521170233508658,0.277
1.99224708074737,-0.521209257679205,0.278
1.99540203224109,-0.521228702568521,0.279
1.99860291314792,-0.521241861601316,0.28
2.00187299647924,-0.521247795712813,0.281
2.00522945288232,-0.521256524977663,0.282
2.00869653314636,-0.521264133020894,0.283
2.01230166351002,-0.521280730297175,0.284
2.01605557144737,-0.521316918701449,0.285
2.01997440668227,-0.52137651649901,0.286
2.02407477145213,-0.521464482208914,0.287
2.02836527434804,-0.521577801665706,0.288
2.03285103972447,-0.521733157647526,0.289
2.03753364209421,-0.521921225524972,0.29
2.04240761800301,-0.522150138459199,0.291
2.04747257541708,-0.52243094505055,0.292
2.05272580230566,-0.522770914334071,0.293
2.05814110368979,-0.523157859603492,0.294
2.06370478829735,-0.523598621758691,0.295
2.06940851336367,-0.524103662817412,0.296
2.07523489392832,-0.524674842472054,0.297
2.0811628010891,-0.525310570009859,0.298
2.08716397113229,-0.526019162637864,0.299
2.09323243713179,-0.526794712689229,0.3
2.09935222427558,-0.527627068675232,0.301
2.1055162353177,-0.528529376432912,0.302
2.11171243147872,-0.52948866580883,0.303
2.1179270685071,-0.530492584828911,0.304
2.124151757392,-0.53153647166991,0.305
2.13037264525753,-0.532618310016452,0.306
2.13657123811937,-0.533729380952557,0.307
2.14272640211222,-0.53485794045607,0.308
2.14882038001928,-0.535998732939756,0.309
2.15482901824903,-0.537154803440235,0.31
2.16073017992845,-0.538304637044268,0.311
2.16649776986885,-0.539440294000052,0.312
2.17211586925055,-0.540563413515277,0.313
2.17755044758954,-0.541654835657199,0.314
2.18277675050045,-0.542694479173931,0.315
2.18776680682307,-0.543686392153319,0.316
2.1925073908199,-0.54461473577342,0.317
2.19699139658625,-0.545476648599303,0.318
2.20118699234007,-0.546252703691744,0.319
2.20508063225711,-0.546940302605241,0.32
2.20866279403632,-0.547541852398918,0.321
2.2119078791649,-0.548048441331709,0.322
2.2148107529133,-0.548453374438957,0.323
2.21735521227577,-0.548742712416385,0.324
2.21951838157173,-0.548921267830294,0.325
2.22129550588619,-0.548978617865617,0.326
2.22267686081021,-0.548915581097815,0.327
2.22364581037428,-0.548722142441534,0.328
2.22419947091015,-0.548404437166397,0.329
2.22432984159535,-0.547961735090394,0.33
2.2240315862715,-0.547392366295928,0.331
2.22331429945445,-0.546690462044825,0.332
2.22218273498447,-0.545858760557256,0.333
2.22064569732141,-0.544897863087362,0.334
2.21872873977688,-0.543795000815595,0.335
2.21644268091346,-0.542554897569381,0.336
2.21380661650352,-0.541177638611825,0.337
2.21085579567143,-0.539659391519013,0.338
2.20760155888108,-0.537989913489386,0.339
2.20407869459948,-0.536177251359383,0.34
2.20030044217806,-0.534236215571318,0.341
2.19629025428714,-0.532152624974916,0.342
2.19207953952455,-0.529940569735484,0.343
2.18769319612262,-0.527598462785712,0.344
2.1831495210462,-0.52513573144548,0.345
2.17846049901952,-0.522554350149514,0.346
2.17366057306173,-0.519862056527079,0.347
2.16878507539314,-0.517063194312742,0.348
2.1638450221818,-0.514156355012003,0.349
2.15885973357039,-0.511162240003632,0.35
2.15386048511014,-0.508082603440626,0.351
2.1488669288319,-0.504922496293208,0.352
2.14390084998628,-0.5016954714732,0.353
2.13897767246055,-0.498405894752794,0.354
2.13411262757037,-0.49506209418739,0.355
2.12932273831774,-0.491673221402129,0.356
2.12462376033896,-0.488248454688303,0.357
2.12002575588567,-0.48477958919585,0.358
2.11552897797383,-0.481286446714906,0.359
2.11114693912872,-0.477768813020354,0.36
2.10689119045405,-0.474238224228346,0.361
2.10274489864145,-0.470686981199514,0.362
2.09872386321701,-0.467112925264852,0.363
2.09483301355184,-0.463524622139865,0.364
2.09105080393573,-0.459907414080096,0.365
2.08738089318598,-0.456276280064843,0.366
2.08381978240576,-0.452627641745225,0.367
2.08035923089978,-0.448946358211837,0.368
2.07697336828926,-0.445240872876223,0.369
2.07366923768856,-0.44150037578918,0.37
2.07043023999669,-0.437721662407627,0.371
2.06723662688438,-0.433902070398144,0.372
2.06407976590589,-0.430043872564585,0.373
2.06095049545198,-0.426131511213091,0.374
2.05782994772241,-0.422160542759217,0.375
2.0546998743759,-0.418139412364912,0.376
2.05156445595623,-0.414057934236296,0.377
2.04838935246832,-0.409913511743988,0.378
2.04515285097057,-0.405707810220769,0.379
2.04184183277795,-0.401438921649595,0.38
2.03843809647001,-0.397101049804063,0.381
2.03491477000517,-0.392696416460921,0.382
2.03125685833335,-0.388220983638557,0.383
2.02745144332472,-0.383687440578181,0.384
2.02346232978044,-0.379092818388022,0.385
2.01928255991534,-0.374433254484425,0.386
2.01488930935927,-0.369719946523342,0.387
2.01026692028636,-0.364954019405629,0.388
2.00540872003762,-0.360139155801831,0.389
2.00030561935395,-0.355265585985665,0.39
1.99494351067938,-0.350345710887414,0.391
1.98932042572171,-0.34537606196785,0.392
1.98343046214538,-0.340345851154127,0.393
1.97726784769804,-0.335261343776811,0.394
1.97084891244097,-0.330135372808116,0.395
1.96417652011251,-0.324965870708581,0.396
1.95725893875862,-0.31974185844162,0.397
1.950107007481,-0.314477061623374,0.398
1.94273207129971,-0.309168721370479,0.399
1.9351601092998,-0.303793468813677,0.4
1.92739577263088,-0.298383725665595,0.401
1.91944765769831,-0.292936272565398,0.402
1.91133350582834,-0.28745161086941,0.403
1.9030617403352,-0.281935506455349,0.404
1.89464764047675,-0.276396150057288,0.405
1.88609937724629,-0.270832256624494,0.406
1.87742259108288,-0.265262531880436,0.407
1.86863270987616,-0.259685060370983,0.408
1.85974475072803,-0.254107981401185,0.409
1.85076882906125,-0.248548809716636,0.41
1.84172814030547,-0.243011598333413,0.411
1.83262841602931,-0.23749091474915,0.412
1.8234947944571,-0.232004019401817,0.413
1.81433191802075,-0.226550579807587,0.414
1.80516596425498,-0.221137388449887,0.415
1.79601017622746,-0.215798209829122,0.416
1.78688790981946,-0.210510637718997,0.417
1.77781416944583,-0.205297447664292,0.418
1.76879096540305,-0.200164757413714,0.419
1.75985122933945,-0.195114149033645,0.42
1.75100388241671,-0.190150669676613,0.421
1.74225356581308,-0.185271226714033,0.422
1.73362942109518,-0.180477446569767,0.423
1.72513289008504,-0.175773206829103,0.424
1.71678230548088,-0.171171138346705,0.425
1.7085950269334,-0.166662914221724,0.426
1.70057106847567,-0.162261480684086,0.427
1.69271969656848,-0.157959724732803,0.428
1.68505962245607,-0.153762742527452,0.429
1.67759374667375,-0.149664379075452,0.43
1.67033938902866,-0.145665401547264,0.431
1.66331155691035,-0.141763274840186,0.432
1.65650295258039,-0.137977419188673,0.433
1.64991462574103,-0.134302699518179,0.434
1.64355993743344,-0.130737842532287,0.435
1.63743030500122,-0.127295380138843,0.436
1.63153451059395,-0.123974758828658,0.437
1.6258600541489,-0.120781841007265,0.438
1.62039046440316,-0.117715516244789,0.439
1.6151436301228,-0.114782651471913,0.44
1.61010342088054,-0.111992546803738,0.441
1.60526687054283,-0.109337285388654,0.442
1.60062275671922,-0.106827770746446,0.443
1.59615507877416,-0.104461689710095,0.444
1.59187629543036,-0.102235217615452,0.445
1.58777933037193,-0.100150769199002,0.446
1.58385475429207,-0.0982035740491754,0.447
1.580095569748,-0.0963883930165092,0.448
1.57648367252752,-0.0947056270231622,0.449
1.57302445133614,-0.0931649043514817,0.45
1.56972167283108,-0.0917557409027214,0.451
1.56654178718144,-0.0904615522676043,0.452
1.56349132798919,-0.0892758537281444,0.453
1.56055933204247,-0.0881965309720057,0.454
1.55773452132063,-0.0872114491358255,0.455
1.55500493429553,-0.0863210515347448,0.456
1.55236602872924,-0.0855105648181592,0.457
1.54982201827342,-0.0847790503548645,0.458
1.54735664646974,-0.0841311087201951,0.459
1.54495719977323,-0.0835510598323524,0.46
1.54262470766739,-0.083045327271787,0.461
1.54035023102159,-0.0826069989496188,0.462
1.53814538433026,-0.0822463614570652,0.463
1.53598299052595,-0.081960420500474,0.464
