Drag (N),Lift (N),Time (s)
0.945,-0.473,0
0.955055078732564,-0.482375993649305,0.001
0.965104999583544,-0.491737215840487,0.002
0.975131876003893,-0.501061204053784,0.003
0.985134645225852,-0.510336161071428,0.004
0.995093219650871,-0.519545966359133,0.005
1.00500144787371,-0.52868206531726,0.006
1.01484218449197,-0.537742415395462,0.007
1.02460391266059,-0.546697824228895,0.008
1.03427603247419,-0.555543272272082,0.009
1.04384310434233,-0.564261257613848,0.01
1.05330089020224,-0.572841959053326,0.011
1.06263374565892,-0.581261961302862,0.012
1.07183386437027,-0.589520830550765,0.013
1.08088070307098,-0.597609724206706,0.014
1.08977224015177,-0.605516300286823,0.015
1.09850490775317,-0.613243547831788,0.016
1.10706671060229,-0.620771373210043,0.017
1.11544893776004,-0.628097804513146,0.018
1.12363895076224,-0.635215624649733,0.019
1.13163892367857,-0.642109902148052,0.02
1.13943133297726,-0.648771615919778,0.021
1.14701898191642,-0.65519587212863,0.022
1.15439026062427,-0.661373628269262,0.023
1.16154352643221,-0.667307427013725,0.024
1.16846742833837,-0.673001743349739,0.025
1.17515837493215,-0.678448651653748,0.026
1.18160793306518,-0.683646296417784,0.027
1.18782169976769,-0.688589183212312,0.028
1.19378794986648,-0.693278299839722,0.029
1.19951420574764,-0.697702586693315,0.03
1.2049921606714,-0.701870193608611,0.031
1.21022024902672,-0.70577641960548,0.032
1.21519146578138,-0.709427756344289,0.033
1.21991569298666,-0.71281386774407,0.034
1.22440106060619,-0.715936093514284,0.035
1.22863933963359,-0.7187880546893,0.036
1.2326359605186,-0.721381939134436,0.037
1.23638618419046,-0.723716884023538,0.038
1.2398901015815,-0.72579537435034,0.039
1.24316369406532,-0.72761144013204,0.04
1.24620615243009,-0.729188866419983,0.041
1.24902131442085,-0.730522375528618,0.042
1.25162362609704,-0.731610979083745,0.043
1.25401872698413,-0.732454932323787,0.044
1.25621904848773,-0.733069718930526,0.045
1.25822198343951,-0.733465530869217,0.046
1.26004292308595,-0.733650898400866,0.047
1.26170582136011,-0.733623644843493,0.048
1.26321177809259,-0.733397705010852,0.049
1.26457225572621,-0.732978066486348,0.05
1.26580626849132,-0.732380587044763,0.051
1.2669316917658,-0.731611375413546,0.052
1.26795207752811,-0.730685546534695,0.053
1.26887902087016,-0.729608410217194,0.054
1.26973787193605,-0.728389132183467,0.055
1.27055587894013,-0.727037064949785,0.056
1.27133114384942,-0.725571002024063,0.057
1.27208440862555,-0.723995246052205,0.058
1.27283346426302,-0.722317323719391,0.059
1.27359582678283,-0.720549774836622,0.06
1.27437704799668,-0.718713683820428,0.061
1.27519251562353,-0.716825412243676,0.062
1.27606189484629,-0.714889442874287,0.063
1.27699281981717,-0.712922328881826,0.064
1.27800566784631,-0.71093088340648,0.065
1.27912101317092,-0.708932948482186,0.066
1.28034820435058,-0.706932665997715,0.067
1.28171640617084,-0.704939017661905,0.068
1.28322398905998,-0.702969372368276,0.069
1.2848811625004,-0.70103719188714,0.07
1.28671210717372,-0.699148011244024,0.071
1.28871589317047,-0.697319661809582,0.072
1.29089755276759,-0.695554917227541,0.073
1.2932651641462,-0.693863260495276,0.074
1.29584437327547,-0.692252306333271,0.075
1.29862584941049,-0.690731801139829,0.076
1.30160569092643,-0.689300313793863,0.077
1.30479579130155,-0.687966162801345,0.078
1.30820091277329,-0.686723420701085,0.079
1.31182138859176,-0.685571420722654,0.08
1.31564779566453,-0.684504089056826,0.081
1.31966954909835,-0.683523109450662,0.082
1.32389531432232,-0.682623055058082,0.083
1.32831664436946,-0.68181107951911,0.084
1.33292849814186,-0.681084219259562,0.085
1.33771740680726,-0.680435597838399,0.086
1.34268151915492,-0.679878149932465,0.087
1.34781720051374,-0.679399249412382,0.088
1.35309871785388,-0.678998963515992,0.089
1.35852674548744,-0.678675292289326,0.09
1.36409141814336,-0.678411971878751,0.091
1.36978060988641,-0.678212565967154,0.092
1.37557490529837,-0.678070494836181,0.093
1.38147848044407,-0.677980046498055,0.094
1.38747952159762,-0.677936782503746,0.095
1.39354256837515,-0.677945621376555,0.096
1.3996692033619,-0.677996916076528,0.097
1.4058463650897,-0.678082606185519,0.098
1.41206559966796,-0.678191799955004,0.099
1.41829821063222,-0.678330173943273,0.1
1.42454175444292,-0.678494223129751,0.101
1.43078323282855,-0.678682212317516,0.102
1.43700396982797,-0.678888611612318,0.103
1.44319823484772,-0.679117848139024,0.104
1.44935249323023,-0.679360705793696,0.105
1.45545925473055,-0.67962356192383,0.106
1.46151011804143,-0.679906362555091,0.107
1.46749223847894,-0.680199323905713,0.108
1.47340724454547,-0.680510505176051,0.109
1.47924604682783,-0.680838582113972,0.11
1.48499947400607,-0.681186585002046,0.111
1.49066102298405,-0.681548615649182,0.112
1.4962309799972,-0.681941504438839,0.113
1.50169247566031,-0.682362535786125,0.114
1.5070515114136,-0.682809057646648,0.115
1.51231043557184,-0.683287859117108,0.116
1.51745056644124,-0.683790594256962,0.117
1.52247236731008,-0.684321800194159,0.118
1.52738278182591,-0.684872170683532,0.119
1.5321834025237,-0.685446105655809,0.12
1.53686403529698,-0.686052480622187,0.121
1.54142876617277,-0.686698692334773,0.122
1.54587229881125,-0.687387213469129,0.123
1.55021084653264,-0.688119216735101,0.124
1.55444273684731,-0.68889893074893,0.125
1.55857990119304,-0.689722251171186,0.126
1.5626138880732,-0.690590030086299,0.127
1.56655741904793,-0.691505633211633,0.128
1.57041219989965,-0.692474571400409,0.129
1.57419104975086,-0.693491110434006,0.13
1.57787771615437,-0.694568363366761,0.131
1.58148460862934,-0.695696917925664,0.132
1.58502161659182,-0.696881206439453,0.133
1.58849458025473,-0.698112294707742,0.134
1.59189825666952,-0.699402986676293,0.135
1.59523648760967,-0.70075358044339,0.136
1.5985172096041,-0.702172433577917,0.137
1.60173854980582,-0.703649513721378,0.138
1.60491825492987,-0.705187366544034,0.139
1.60806197533636,-0.706786508866217,0.14
1.61116508325144,-0.708463587141115,0.141
1.61423052554195,-0.7101913684781,0.142
1.61727116318912,-0.711985811243261,0.143
1.62027830191356,-0.713850099770396,0.144
1.62325895780419,-0.715793076179999,0.145
1.62621834295847,-0.717798054071494,0.146
1.6291689972135,-0.719865915139639,0.147
1.63211425273455,-0.721988864405466,0.148
1.63503980091162,-0.724182631086892,0.149
1.63794779686106,-0.72643747593338,0.15
1.64084588107906,-0.728754627510206,0.151
1.64373769628758,-0.731128558972924,0.152
1.64660479357331,-0.733563853984729,0.153
1.64946912974298,-0.736044642825073,0.154
1.65232044685173,-0.738579658322779,0.155
1.65515892887143,-0.741161849124612,0.156
1.65796134596783,-0.743790970046334,0.157
1.66073669569453,-0.746454850203448,0.158
1.66348572798168,-0.749155509876968,0.159
1.66619630257946,-0.751896248063352,0.16
1.66886390510922,-0.754674132295668,0.161
1.67149473509961,-0.757481913650426,0.162
1.67407353136287,-0.760309920282731,0.163
1.67660113099571,-0.763153303738063,0.164
1.67907594610783,-0.766004960842515,0.165
1.68149305475098,-0.768867711877107,0.166
1.68384097575056,-0.771731657973008,0.167
1.68611241577274,-0.774594456442323,0.168
1.68830014156159,-0.777453895040041,0.169
1.69040285167789,-0.780299355104464,0.17
1.69241635625265,-0.783126388961954,0.171
1.69431877598514,-0.785937153069977,0.172
1.69611345466872,-0.788718543687017,0.173
1.69781011523532,-0.79146200950199,0.174
1.69940991688204,-0.79417504890509,0.175
1.70088288606614,-0.796846903642467,0.176
1.70223599677341,-0.799470774148646,0.177
1.70347594848616,-0.802052594176592,0.178
1.7045976886853,-0.80458990588299,0.179
1.70559056447243,-0.807090934899452,0.18
1.70644756250228,-0.809546464143346,0.181
1.70718477012905,-0.811964213520359,0.182
1.70780787913669,-0.81434749831105,0.183
1.70829988732554,-0.816705165117123,0.184
1.7086625294701,-0.81902627083756,0.185
1.70889545666917,-0.821315712821465,0.186
1.7090091315245,-0.823584251230482,0.187
1.70899235077429,-0.825826726222884,0.188
1.7088466637245,-0.828044650930225,0.189
1.70858257292113,-0.830242680284902,0.19
1.70819347778407,-0.83241013844329,0.191
1.70768703447299,-0.834564836646203,0.192
1.70707189853993,-0.836700524665693,0.193
1.70635037967287,-0.83882256342352,0.194
1.70551080451591,-0.840937108368539,0.195
1.70455588809208,-0.843042134592853,0.196
1.70351688949641,-0.845140019200148,0.197
1.70238319412636,-0.847234758803529,0.198
1.70114902797756,-0.849324611706342,0.199
1.69983179021795,-0.851421078942078,0.2
1.69844032831554,-0.85351907959865,0.201
1.69697111818976,-0.855623913041647,0.202
1.69542627474561,-0.857726111420556,0.203
1.69381734078379,-0.859833703687712,0.204
1.69214359490977,-0.861952999923715,0.205
1.69040012127922,-0.864080145051511,0.206
1.68859598259458,-0.866213446908432,0.207
1.68672793193989,-0.868348826807758,0.208
1.68480414411484,-0.870486268278418,0.209
1.68282537249815,-0.872627508588269,0.21
1.68078554878708,-0.874762116159987,0.211
1.67869947224615,-0.876891310950914,0.212
1.67656184359239,-0.879017031892679,0.213
1.67437077526788,-0.881130369708933,0.214
1.67214244374556,-0.883229366529301,0.215
1.66987662475433,-0.88530925557109,0.216
1.66756711881784,-0.887365794901826,0.217
1.66522482950219,-0.88939914952671,0.218
1.66285313111171,-0.89140725025052,0.219
1.66044583236044,-0.893393685377477,0.22
1.65800594861412,-0.895352295419029,0.221
1.65553776878752,-0.897279444649978,0.222
1.65304670056001,-0.899164491444804,0.223
1.65054191866149,-0.901002986088475,0.224
1.64801083394809,-0.902802033016814,0.225
1.64545359336922,-0.904549582041312,0.226
1.64287586672212,-0.906247446764168,0.227
1.64027808249591,-0.907895833890143,0.228
1.63765982451836,-0.909487795798323,0.229
1.63502700235828,-0.911019073784402,0.23
1.63236994747154,-0.912496115094923,0.231
1.62970556782187,-0.913907745807741,0.232
1.6270240441911,-0.915260141271662,0.233
1.62432963315438,-0.916551349668778,0.234
1.62163225461793,-0.917781354130616,0.235
1.61892869039188,-0.9189453921826,0.236
1.61622099406054,-0.920041950593275,0.237
1.61350687170479,-0.921062225825094,0.238
1.61079947326669,-0.92201521116005,0.239
1.60809072153723,-0.922900986446,0.24
1.60537791101474,-0.923716494980276,0.241
1.60266081458213,-0.924451320666627,0.242
1.59994522410973,-0.925119147769958,0.243
1.59722698436287,-0.925715862277051,0.244
1.59451910727724,-0.926239025796148,0.245
1.59182030024485,-0.926679810381948,0.246
1.58912285478166,-0.927048456612814,0.247
1.58642383047425,-0.927337219077679,0.248
1.58372870300139,-0.927555351299703,0.249
1.58103493575633,-0.927704725565621,0.25
1.57834975625115,-0.927782461379033,0.251
1.57567290914449,-0.927790992199793,0.252
1.57299447683474,-0.927728932142091,0.253
1.5703367689682,-0.927596604145912,0.254
1.56767911560997,-0.927401136949584,0.255
1.56504007535199,-0.927139412299936,0.256
1.56240795977338,-0.926820567559583,0.257
1.55979178999043,-0.9264444639961,0.258
1.55719801288644,-0.926019283571795,0.259
1.55461820730739,-0.925540066134791,0.26
1.55206281042931,-0.925013041373191,0.261
1.54953019572244,-0.924447846002592,0.262
1.5470064412169,-0.923842557729798,0.263
1.54451383798172,-0.923198323796951,0.264
1.54204935424971,-0.922526419800157,0.265
1.53960888363995,-0.92182383471828,0.266
1.53719008137006,-0.921096819912233,0.267
1.53479253570997,-0.920345509727549,0.268
1.53243226367625,-0.919574398276246,0.269
1.53009435833522,-0.918790700398598,0.27
1.5277830152196,-0.917997207650484,0.271
1.5255002334586,-0.917197954818425,0.272
1.52324613185388,-0.916390888597876,0.273
1.52103078673829,-0.915580877738542,0.274
1.51884593377401,-0.914785754415567,0.275
1.51667492755722,-0.913988199575633,0.276
1.51453539967306,-0.913197850187863,0.277
1.51242149446666,-0.912421768355701,0.278
1.51033420987134,-0.911658535149009,0.279
1.50825863305937,-0.910912248458366,0.28
1.50620329004223,-0.910175173197488,0.281
1.50417720954941,-0.90945424993305,0.282
1.50216112199102,-0.908751406862758,0.283
1.50015248444238,-0.9080587204466,0.284
1.49815703343243,-0.907379055827956,0.285
1.49616276772743,-0.906719353020984,0.286
1.49418096936484,-0.906073604803893,0.287
1.49220219200068,-0.905440816755537,0.288
1.49022683495171,-0.904817374909104,0.289
1.48824971426288,-0.904207626566495,0.29
1.48627611579217,-0.903603339642455,0.291
1.48430572501088,-0.903021263417003,0.292
1.48231863625147,-0.902437387831917,0.293
1.48031233159512,-0.901858761088799,0.294
1.47829512101716,-0.901288447374348,0.295
1.47625743577582,-0.900723645756619,0.296
1.47420465076472,-0.90016052343382,0.297
1.47211935324692,-0.899599578770988,0.298
1.47000441488316,-0.899034742444264,0.299
1.46786763241997,-0.898469712072966,0.3
1.46569128470634,-0.89789687041968,0.301
1.46347705922926,-0.897317333282743,0.302
1.46122374366684,-0.896712387786898,0.303
1.45893417774663,-0.896103820110494,0.304
1.456598548475,-0.895480361611857,0.305
1.45421020214348,-0.894830363696042,0.306
1.45177674014941,-0.894160657976503,0.307
1.44929844598412,-0.893466819604479,0.308
1.44677709922968,-0.892751393109643,0.309
1.44420116130422,-0.892012945299513,0.31
1.4415697025172,-0.891240083389928,0.311
1.43889679304269,-0.890442210968244,0.312
1.4361676945195,-0.889613392560876,0.313
1.43338463696416,-0.888757151486576,0.314
1.43054758957175,-0.88786873857949,0.315
1.42765887444743,-0.886942265813041,0.316
1.42471582873348,-0.885980770600313,0.317
1.42171034175735,-0.884982827755349,0.318
1.41864949574444,-0.883947666347429,0.319
1.4155264970491,-0.882877455063072,0.32
1.41234689394469,-0.881767586621355,0.321
1.40911255302776,-0.880619188434971,0.322
1.40581919314969,-0.879428538749673,0.323
1.40246980166448,-0.878208237942568,0.324
1.39905708651132,-0.876950953936864,0.325
1.39559053685954,-0.875652347843484,0.326
1.39207708329974,-0.874323040928091,0.327
1.38849724783093,-0.872954038066547,0.328
1.38486548786767,-0.871549804927339,0.329
1.3811887471677,-0.870112110505045,0.33
1.37745731307927,-0.868646960869175,0.331
1.37367392964792,-0.867150735400991,0.332
1.36983766582726,-0.865621274503368,0.333
1.36596321864512,-0.86405951799433,0.334
1.36204097001765,-0.862467778247858,0.335
1.35806536750967,-0.86084560280023,0.336
1.35404066747383,-0.859198394558438,0.337
1.3499693404566,-0.857523169717834,0.338
1.345861489237,-0.855834488340132,0.339
1.34169962160043,-0.85412698553647,0.34
1.33749864083814,-0.85239863187131,0.341
1.33326608559391,-0.850655453556093,0.342
1.32900406026278,-0.848908236029999,0.343
1.32471277727625,-0.84715399331554,0.344
1.32040102546263,-0.845392363626911,0.345
1.31607015203499,-0.843632836049645,0.346
1.31171874199851,-0.841881117826174,0.347
1.30735534587573,-0.840141613403956,0.348
1.30299085866102,-0.838433279660195,0.349
1.29862309234737,-0.836747019883466,0.35
1.29426424698694,-0.835078994129173,0.351
1.28991247881037,-0.833445861907934,0.352
1.28557224074775,-0.831852336617936,0.353
1.28125302440975,-0.830305466145625,0.354
1.27695052615705,-0.828808054225549,0.355
1.27267817535878,-0.827364149536365,0.356
1.26842788683658,-0.825981608364816,0.357
1.26420770218185,-0.824667616191539,0.358
1.26002955962792,-0.823422110001389,0.359
1.2558876708211,-0.822256011043817,0.36
1.25178997044859,-0.821186105373026,0.361
1.2477407979053,-0.820205430183594,0.362
1.24374757558695,-0.819311224255676,0.363
1.23983259969504,-0.818517704330503,0.364
1.23597830317887,-0.817831499466992,0.365
1.23218831739794,-0.817252318953496,0.366
1.22847738546814,-0.816798547368859,0.367
1.22485168246868,-0.816465714287352,0.368
1.22131478203151,-0.816263596800535,0.369
1.2178569193833,-0.816199613344757,0.37
1.21449668079895,-0.816273015522361,0.371
1.21123532596702,-0.816489565322438,0.372
1.20807302899188,-0.816854152525087,0.373
1.20502618048979,-0.817372191288692,0.374
1.20208196133237,-0.818044004896479,0.375
1.19923942996933,-0.818857190001602,0.376
1.19651444611649,-0.819833091300756,0.377
1.19390430120848,-0.820974300279543,0.378
1.19141354259973,-0.822271598984561,0.379
1.18903578050158,-0.823728462307896,0.38
1.18678452001899,-0.825338396900912,0.381
1.18465434174856,-0.827113027877191,0.382
1.18263635474027,-0.829045585039824,0.383
1.18074174417531,-0.8311285626795,0.384
1.1789663117989,-0.833370696340186,0.385
1.17730219045558,-0.835757005639339,0.386
1.1757695979482,-0.838284227897553,0.387
1.17434971351742,-0.840955298687147,0.388
1.17303484018894,-0.843757191183769,0.389
1.17183919533909,-0.84668574163397,0.39
1.17075002499139,-0.849734587583078,0.391
1.16975957395181,-0.852897911800973,0.392
1.16886112168085,-0.856161870320925,0.393
1.16806508388989,-0.859535645145889,0.394
1.16736922582786,-0.863007137963495,0.395
1.16675659673239,-0.866557326284983,0.396
1.1662338488853,-0.870175038023018,0.397
1.16578548761854,-0.873859714074786,0.398
1.16540798386875,-0.877592675113141,0.399
1.16509829005828,-0.881368104825581,0.4
1.16485101459563,-0.885171073975534,0.401
1.1646555971695,-0.888990703430724,0.402
1.16450278320382,-0.892807385388309,0.403
1.16438506092091,-0.8966298974889,0.404
1.16430268136015,-0.900421629606031,0.405
1.16424185345108,-0.904180507694187,0.406
1.16420017011107,-0.907897995215656,0.407
1.16417653639499,-0.911562014326628,0.408
1.16415133185636,-0.915162877455038,0.409
1.164116824408,-0.918682500751319,0.41
1.1640763578689,-0.922106237280735,0.411
1.16402244962917,-0.925433882565267,0.412
1.16394200937287,-0.928650388971308,0.413
1.16383093660011,-0.931747989149637,0.414
1.16368877165882,-0.934712744479591,0.415
1.16351042680098,-0.937537044594358,0.416
1.16327782100393,-0.940215766014612,0.417
1.1629888402256,-0.942738191583858,0.418
1.16264965657186,-0.945097934777073,0.419
1.16224574625267,-0.947289470600578,0.42
1.16177761374249,-0.949305234852828,0.421
1.16123416315683,-0.951138742727186,0.422
1.16061531782733,-0.952786145973829,0.423
1.15991868803575,-0.95424562396083,0.424
1.1591403705767,-0.955503752491008,0.425
1.15827595359832,-0.956560927691409,0.426
1.1573252644026,-0.957414534910394,0.427
1.15627452915246,-0.958057670511655,0.428
1.15513331768079,-0.958497276726614,0.429
1.1539011838509,-0.958731850347643,0.43
1.15256622059212,-0.958760966257897,0.431
1.1511297914205,-0.958577824137423,0.432
1.14959624794141,-0.95817999898039,0.433
1.1479676401266,-0.95757777511528,0.434
1.14623735828604,-0.956769670420842,0.435
1.14440968679499,-0.955754833661661,0.436
1.14248319841056,-0.954545663576906,0.437
1.14046694425633,-0.953134468787928,0.438
1.1383652657277,-0.951536347704113,0.439
1.13617097027919,-0.949749702159126,0.44
1.13390402518292,-0.947778717122306,0.441
1.13155544162786,-0.945636886311101,0.442
1.12912748405628,-0.943329929881418,0.443
1.12662720700216,-0.940854319279825,0.444
1.12405803109598,-0.938233077027035,0.445
1.12141676136181,-0.935474458003113,0.446
1.11870771446918,-0.93257742844516,0.447
1.11593970081159,-0.92955836567542,0.448
1.11311127365006,-0.926418702766727,0.449
1.11022855290515,-0.923158102240783,0.45
1.10729427076333,-0.919797179888249,0.451
1.10431233831232,-0.916342243185656,0.452
1.10128784563258,-0.912797744487523,0.453
1.09822341718512,-0.909174604472593,0.454
1.09512586610998,-0.905477054961317,0.455
1.09199884947007,-0.901716601906512,0.456
1.08883899956361,-0.897906750038811,0.457
1.08565656782195,-0.894046352447112,0.458
1.08246789147741,-0.890139113025979,0.459
1.07925822862628,-0.886201160531012,0.46
1.07604025023228,-0.882227660402586,0.461
1.0728175815489,-0.878219161723038,0.462
1.06958413271003,-0.874187119653159,0.463
1.06634016546198,-0.870134349956498,0.464
1.06308296282752,-0.866059545968585,0.465
1.05982600420059,-0.861973686598463,0.466
1.05656659526309,-0.857877747242591,0.467
