Drag (N),Lift (N),Time (s)
-1.03981997266782,3.94538710704553,0
-1.05807156845498,3.93679368836682,0.001
-1.07632731346618,3.92825581553393,0.002
-1.09455967892031,3.91981813015502,0.003
-1.11277051358292,3.91145324184152,0.004
-1.13093962385077,3.90317975928066,0.005
-1.1490953615063,3.89502365688555,0.006
-1.16717283947944,3.88698229882757,0.007
-1.18514843549343,3.87910423008313,0.008
-1.20300983110824,3.87141719401482,0.009
-1.22074585604844,3.86390666005262,0.01
-1.23831289261821,3.85663403211887,0.011
-1.25566104520262,3.84957849706595,0.012
-1.27274925646792,3.84276828597791,0.013
-1.28952907020206,3.83619278559563,0.014
-1.30591526063932,3.82988526979286,0.015
-1.3218804128177,3.82384389233462,0.016
-1.33735878693491,3.81807679868411,0.017
-1.35227959569212,3.81257517220306,0.018
-1.36655757561894,3.80731434220953,0.019
-1.38008318553943,3.80227170013241,0.02
-1.39278077058723,3.79747721541289,0.021
-1.40458773100377,3.79289714426668,0.022
-1.41541460902681,3.78853893479108,0.023
-1.4251468885875,3.78436898827475,0.024
-1.43369733247041,3.78037397949641,0.025
-1.44097894030116,3.77648919648951,0.026
-1.44693063266814,3.77272454222112,0.027
-1.45144131228301,3.76905844688981,0.028
-1.45444585132401,3.76545955441666,0.029
-1.45586292008314,3.76191656130418,0.03
-1.45564997258899,3.75842245743977,0.031
-1.45376175921553,3.75495380882731,0.032
-1.45015404539454,3.7514807833228,0.033
-1.44477782092854,3.74800589275064,0.034
-1.43760787707055,3.74452248394618,0.035
-1.42865701199592,3.74099296337592,0.036
-1.4179111015229,3.73742998627248,0.037
-1.40535265574987,3.73380565688297,0.038
-1.39099760609774,3.7301236709709,0.039
-1.37485180741782,3.72639772206827,0.04
-1.35694605813828,3.72260148676987,0.041
-1.33728882601368,3.71874352440778,0.042
-1.31589685433729,3.71483324079129,0.043
-1.29281746853165,3.71092121068002,0.044
-1.26807761448542,3.70695746286769,0.045
-1.2417450768687,3.70298131425762,0.046
-1.21384632106055,3.69897700129264,0.047
-1.18447510666214,3.69497391956906,0.048
-1.15369544808891,3.69094577007133,0.049
-1.12161450002319,3.68691880814515,0.05
-1.08831394002032,3.68290189221329,0.051
-1.05388957510184,3.67892673142844,0.052
-1.01847040820281,3.67502334869341,0.053
-0.982196923821158,3.67119417693749,0.054
-0.945220434346337,3.66746845348582,0.055
-0.907660092856856,3.66386735009861,0.056
-0.869676545339729,3.66042432283859,0.057
-0.83141637089213,3.65714317445627,0.058
-0.793049147671699,3.65410385266613,0.059
-0.754713909008948,3.65131741066119,0.06
-0.716591062025119,3.64878055732931,0.061
-0.678850866179603,3.64651985425639,0.062
-0.641643458510903,3.64457877618973,0.063
-0.605125107314778,3.64298738226013,0.064
-0.569447043544495,3.64175890765654,0.065
-0.534767004944779,3.64093828111698,0.066
-0.501252667946516,3.64055768702369,0.067
-0.469033225566033,3.64065811684326,0.068
-0.438246398190458,3.64122102495391,0.069
-0.409074291887041,3.64226877935893,0.07
-0.381630724817216,3.64385798627353,0.071
-0.35602931887786,3.64597837861396,0.072
-0.332348350263762,3.64859554095968,0.073
-0.31071272479358,3.65174712128074,0.074
-0.291204260717279,3.65543953664588,0.075
-0.273923709146461,3.65966130984775,0.076
-0.258902272751307,3.66441550873152,0.077
-0.246203152622535,3.66970185753851,0.078
-0.235870133659306,3.67551356267421,0.079
-0.227957848818585,3.68187157628402,0.08
-0.222440125586247,3.68869728731708,0.081
-0.21930401675934,3.69595991174954,0.082
-0.21853555290658,3.70359521984709,0.083
-0.220094960580433,3.71158514184933,0.084
-0.223912054423964,3.71990167312672,0.085
-0.229894971960052,3.72852931076747,0.086
-0.237962695355051,3.73740971516523,0.087
-0.24797365859151,3.74648821636554,0.088
-0.259799914187583,3.75569188783099,0.089
-0.273268829322197,3.76494982551318,0.09
-0.288219810491533,3.77419123272508,0.091
-0.304511090538875,3.7833734194637,0.092
-0.321916795476914,3.79240938996925,0.093
-0.340213729345985,3.80123797680425,0.094
-0.359181323097248,3.8097474169552,0.095
-0.378576674656518,3.8178636951518,0.096
-0.398181133299585,3.82553893212009,0.097
-0.41771227561845,3.83268688679316,0.098
-0.436960462661448,3.83922053398679,0.099
-0.455665516124616,3.84510198626471,0.1
-0.473587020243682,3.85026218375857,0.101
-0.490482662193781,3.85461533725899,0.102
-0.506101228653605,3.85807654604212,0.103
-0.520233410129644,3.86057594107395,0.104
-0.5326775394823,3.86209386198756,0.105
-0.543261037781911,3.86258606094614,0.106
-0.551764433161242,3.86199883487053,0.107
-0.558104908343802,3.86032627256176,0.108
-0.562117615572102,3.85751691749832,0.109
-0.563708856003016,3.85361953897567,0.11
-0.562756585051946,3.84860088303669,0.111
-0.559232907912827,3.84245761708804,0.112
-0.55309387560438,3.83525477060005,0.113
-0.544343112383561,3.82700239790416,0.114
-0.532982162149499,3.81774061807081,0.115
-0.519122073270635,3.80747882076563,0.116
-0.502798251867499,3.79628811296079,0.117
-0.484052842953734,3.7842044547923,0.118
-0.463020701542364,3.7712951872513,0.119
-0.43989249116628,3.75766772306791,0.12
-0.414879148261934,3.74338937101124,0.121
-0.388126522930144,3.72850604817753,0.122
-0.359797218357296,3.71314851808906,0.123
-0.330162049737688,3.69740287164571,0.124
-0.299502340925096,3.68135809706998,0.125
-0.268070921218305,3.66505823379585,0.126
-0.236118890727985,3.64866195049429,0.127
-0.203874891193124,3.63223077313726,0.128
-0.171632163185722,3.6158719292095,0.129
-0.13966353700419,3.59971096275351,0.13
-0.108231542934563,3.58379516199673,0.131
-0.0775829218154114,3.56823342782194,0.132
-0.0479275331058644,3.55315096872255,0.133
-0.0195227984905715,3.53863905325374,0.134
0.00748033293631787,3.52473496328195,0.135
0.0329081815640868,3.51155472942582,0.136
0.0566244102445443,3.49920564560857,0.137
0.078463846312688,3.48773938073073,0.138
0.0983059793061098,3.47724937262321,0.139
0.116055163568959,3.46780231457814,0.14
0.13160839980795,3.45942033521745,0.141
0.144879488821334,3.45214671654852,0.142
0.155816214374216,3.4459942809491,0.143
0.164367356419132,3.44099380998072,0.144
0.170536777176595,3.43716258375044,0.145
0.174273683126434,3.43452405031499,0.146
0.175620523482878,3.43303835403182,0.147
0.174566976791252,3.43269768324728,0.148
0.171176153828176,3.43348852143711,0.149
0.16554371105265,3.43538846906463,0.15
0.157792260211951,3.43838658662263,0.151
0.147999629155336,3.44241360784123,0.152
0.136285017584349,3.44740506580372,0.153
0.122835629752209,3.4533020778472,0.154
0.107859180981338,3.46003542681415,0.155
0.091553790143743,3.46758894371643,0.156
0.0741116159721642,3.47586618067509,0.157
0.0557461210528611,3.48481723693811,0.158
0.0366935072903722,3.4943829940255,0.159
0.0171984433490793,3.50445996051802,0.16
-0.00254796733995446,3.51497330342695,0.161
-0.0223007795862413,3.52588088091343,0.162
-0.041823499257884,3.53711586295587,0.163
-0.0609152015242868,3.5486165424893,0.164
-0.0793877008031271,3.56032883630959,0.165
-0.097054811855288,3.57219262102255,0.166
-0.113706410288542,3.58412142499331,0.167
-0.129168347256051,3.59603446540009,0.168
-0.1432631816617,3.60786659549477,0.169
-0.155849425404947,3.61956739886809,0.17
-0.166754907061697,3.63108818338248,0.171
-0.175860480386285,3.64232678647805,0.172
-0.183046719992511,3.65320975180754,0.173
-0.188256617179646,3.66375279189773,0.174
-0.191394590719591,3.67385765416747,0.175
-0.192414034792705,3.6834545041393,0.176
-0.191261473243597,3.69252780209269,0.177
-0.187983334502312,3.70101430231106,0.178
-0.182581557422014,3.70888593614707,0.179
-0.175069061423579,3.71614338143836,0.18
-0.165496215446344,3.72274479589953,0.181
-0.154007500075937,3.72871412748235,0.182
-0.140708267690326,3.73409785150841,0.183
-0.125710548019946,3.73894777098544,0.184
-0.109178014311994,3.74324504182611,0.185
-0.0912945771883779,3.74702273550633,0.186
-0.0722519719623184,3.75029310834866,0.187
-0.0522856451503287,3.75313170136087,0.188
-0.0316456639266969,3.75559698965804,0.189
-0.0105497522942364,3.75779576935022,0.19
0.0107123047505569,3.75983294770079,0.191
0.0319021633817101,3.76174971497244,0.192
0.052722648525825,3.76361613581754,0.193
0.0728652057158516,3.76550666289146,0.194
0.0920549579402173,3.7675107568687,0.195
0.110021387211057,3.76974420612478,0.196
0.12648249078404,3.77224720874581,0.197
0.141118017821047,3.77509841403911,0.198
0.153638206147588,3.77840529100566,0.199
0.163875966324602,3.78228260957699,0.2
0.171579948327374,3.78680899385601,0.201
0.17649127547879,3.79202276231034,0.202
0.178408497821583,3.79801282977893,0.203
0.17713351938358,3.80481960916002,0.204
0.172564275534616,3.8125158957471,0.205
0.164571981919873,3.82108605947106,0.206
0.153069125849052,3.83060125991213,0.207
0.137955386595674,3.84113131726493,0.208
0.119279184508642,3.8526615704556,0.209
0.096992300876009,3.86521133270882,0.21
0.0711346905912987,3.87869572428978,0.211
0.0417091579186118,3.89321882744257,0.212
0.00885532648116995,3.90872912109424,0.213
-0.0273219445378931,3.92517677087794,0.214
-0.0666877173601739,3.94256642327889,0.215
-0.109101117682347,3.96087616440325,0.216
-0.154322687244008,3.98007349713355,0.217
-0.202194784895539,4.00008968086273,0.218
-0.2525591342491,4.0209307204167,0.219
-0.305156380762697,4.04254331682694,0.22
-0.359663089090609,4.06481208857326,0.221
-0.415822618240661,4.08773490814237,0.222
-0.473395493539926,4.11128190399852,0.223
-0.53210866453132,4.13535122000903,0.224
-0.591638108708755,4.15989702909277,0.225
-0.651652624876013,4.18490832547507,0.226
-0.711831395173126,4.21035886098321,0.227
-0.771882315587712,4.23617803062467,0.228
-0.831563538672714,4.26228082723202,0.229
-0.890599860084529,4.28861495306676,0.23
-0.948657726610764,4.31510442579112,0.231
-1.00549550895501,4.34172319658182,0.232
-1.06088267155572,4.36838175255324,0.233
-1.114607978016,4.39501126442061,0.234
-1.16643193843379,4.4215641788134,0.235
-1.21626499252783,4.44801738188657,0.236
-1.26395530277135,4.47424408301122,0.237
-1.30938473754986,4.5002064397532,0.238
-1.35242706252897,4.525858915283,0.239
-1.39305389886301,4.55115125613726,0.24
-1.43123114363108,4.57604171823563,0.241
-1.46693231551285,4.60048920018938,0.242
-1.50010300393888,4.62452504353962,0.243
-1.53079485846847,4.64815828107399,0.244
-1.55903547617174,4.67137282194735,0.245
-1.58489859951312,4.6941353317576,0.246
-1.60835849759423,4.71649226148455,0.247
-1.62955516735954,4.73846815982248,0.248
-1.6485624016146,4.76008702320919,0.249
-1.66546453080309,4.78137941585025,0.25
-1.68036742198842,4.80236836882451,0.251
-1.69341390716545,4.82305023215846,0.252
-1.70474669005525,4.84353617937906,0.253
-1.71448528274314,4.86383247285076,0.254
-1.7227719848292,4.8839487048342,0.255
-1.72981845987891,4.90392671331609,0.256
-1.73581475896886,4.92377636669812,0.257
-1.74088975868685,4.94352301655953,0.258
-1.74524546585664,4.96315551981078,0.259
-1.74907763704126,4.98269023351313,0.26
-1.75256726474172,5.00213712499652,0.261
-1.75586359344528,5.02147231891316,0.262
-1.75915957296422,5.04071163712433,0.263
-1.76261970577312,5.0598497855408,0.264
-1.76638290771769,5.07885490118069,0.265
-1.77056762124583,5.09770050505302,0.266
-1.77528746091005,5.11639679075684,0.267
-1.78070769760852,5.13492940673704,0.268
-1.78690834460663,5.15331566990384,0.269
-1.79402248308306,5.17155594641335,0.27
-1.80213386982581,5.18968058164256,0.271
-1.81136784728265,5.20764538482175,0.272
-1.82178967340505,5.22551083282577,0.273
-1.8334818082188,5.2433374300218,0.274
-1.84649354466991,5.26105188172441,0.275
-1.86090767631463,5.27874214982103,0.276
-1.8767433283502,5.29643926641614,0.277
-1.89401449341067,5.31414675601929,0.278
-1.91271735302002,5.33186461015508,0.279
-1.93286977361027,5.34959791929785,0.28
-1.95445762987361,5.36734149652821,0.281
-1.97744382637462,5.38505442212599,0.282
-2.0017433499005,5.40274508293594,0.283
-2.02728409320198,5.42034531206072,0.284
-2.05400205111422,5.4377874940271,0.285
-2.08182292218092,5.4550980808766,0.286
-2.11067208626676,5.47224225674814,0.287
-2.14043719484932,5.48918214834286,0.288
-2.17095352717103,5.50581430309909,0.289
-2.2020853379894,5.52210975755619,0.29
-2.23373415214228,5.53795759454206,0.291
-2.26575296768129,5.55327207210049,0.292
-2.29805511316275,5.56806047632273,0.293
-2.33041759154785,5.58227891475445,0.294
-2.36267025004805,5.59589277309041,0.295
-2.39472491051723,5.60885734203376,0.296
-2.42649377098159,5.62114282232193,0.297
-2.45788210982765,5.63280610583124,0.298
-2.48865524764377,5.64380595601415,0.299
-2.5186883960948,5.65408711533618,0.3
-2.54799856412636,5.66362036061838,0.301
-2.57649709357972,5.67241441829962,0.302
-2.60401236155133,5.68050126529938,0.303
-2.63046068307176,5.68783996860732,0.304
-2.65578472116259,5.69448604405388,0.305
-2.68002301331399,5.70041783738408,0.306
-2.70308398173081,5.70572087843584,0.307
-2.7248777092338,5.71035524252753,0.308
-2.74538293711572,5.71430619643186,0.309
-2.7646971296497,5.71764108202932,0.31
-2.78281701783298,5.72040638643885,0.311
-2.7997087422342,5.72263955412705,0.312
-2.81535627309103,5.7242791933019,0.313
-2.82989445497748,5.72536135417251,0.314
-2.84331522500149,5.72591325302469,0.315
-2.85560930502318,5.72591476290659,0.316
-2.86684663996928,5.72537167702132,0.317
-2.87710491028181,5.7243512430893,0.318
-2.88637295689793,5.7228887067529,0.319
-2.89464778490935,5.72095113880998,0.32
-2.90202427892344,5.71853255582273,0.321
-2.90861726307981,5.7157288732605,0.322
-2.91439928312034,5.71250411730456,0.323
-2.91939924594499,5.70883017840714,0.324
-2.92371293018922,5.70477732719813,0.325
-2.92735778352663,5.70032945781971,0.326
-2.93039152305252,5.69546919734299,0.327
-2.93289596846092,5.69019836290103,0.328
-2.93494118947436,5.68451217417551,0.329
-2.93651988557125,5.67848100362743,0.33
-2.93768085327824,5.67207820106979,0.331
-2.93856879236274,5.66530743566477,0.332
-2.93917669681117,5.65818483476604,0.333
-2.93951982833363,5.65076003216812,0.334
-2.93967663144776,5.64301772391854,0.335
-2.93971421149443,5.63494584099371,0.336
-2.93958455937584,5.62655344459658,0.337
-2.93932445534633,5.61790823950287,0.338
-2.93897024598076,5.60896840086583,0.339
-2.93853980425533,5.59975831043185,0.34
-2.93801140690364,5.59026312142592,0.341
-2.93736087740542,5.58044390171025,0.342
-2.9365842219641,5.57038247416921,0.343
-2.93569986108202,5.56000817224353,0.344
-2.93468474160492,5.54931071218266,0.345
-2.93353051376217,5.53832328736964,0.346
-2.9322128773303,5.52703836171888,0.347
-2.93081048261578,5.51544130351302,0.348
-2.92926995670505,5.50355152368795,0.349
-2.92756724381157,5.49137662994713,0.35
-2.92572368035202,5.47886689802893,0.351
-2.92378604164382,5.46606423447699,0.352
-2.92174081753203,5.45300288483326,0.353
-2.91953955605872,5.43957976206748,0.354
-2.91721680357773,5.42584963042054,0.355
-2.91480495919674,5.41186904666453,0.356
-2.91225147084603,5.39763700999083,0.357
-2.90954772613707,5.38312916663381,0.358
-2.90676925530614,5.36839818104788,0.359
-2.90384882470464,5.35348917300678,0.36
-2.90078194060276,5.33842944822001,0.361
-2.89760834802509,5.3232326596605,0.362
-2.89433046215668,5.3079623260612,0.363
-2.89091754341518,5.29260756272576,0.364
-2.88740576165062,5.27723442836597,0.365
-2.88383877422892,5.26192137284595,0.366
-2.88022905634541,5.24668458374447,0.367
-2.87662521614163,5.23155741705142,0.368
-2.87304438813246,5.21661098719433,0.369
-2.86953670370011,5.20182502523195,0.37
-2.86612057609388,5.18722591540363,0.371
-2.86285639662512,5.17286201533624,0.372
-2.85974993016887,5.15882764703255,0.373
-2.8568184858161,5.14508909260865,0.374
-2.8541298053441,5.13166381861317,0.375
-2.85171092823234,5.11863067684144,0.376
-2.84954274801934,5.10595926192421,0.377
-2.84764960839459,5.09366594471349,0.378
-2.84609994302849,5.08176560545597,0.379
-2.84489750117558,5.07033466774271,0.38
-2.84401001676967,5.05939293886083,0.381
-2.84350174463236,5.04893393101918,0.382
-2.84336784949374,5.03904715411525,0.383
-2.84361774677685,5.02971887096974,0.384
-2.84430540314217,5.02097851090907,0.385
-2.8454648720191,5.012856079139,0.386
-2.84708185418275,5.00533929300632,0.387
-2.84912082083799,4.99843187077797,0.388
-2.85162377192235,4.99216065882112,0.389
-2.85465092713833,4.98659965468105,0.39
-2.85821909191633,4.98172615507055,0.391
-2.86232635380414,4.97758336230251,0.392
-2.86699536198997,4.97420444375294,0.393
-2.87220825963709,4.97155298897884,0.394
-2.87801155372714,4.96961358533621,0.395
-2.88443820287362,4.96837136471651,0.396
-2.8914699446798,4.96783506711551,0.397
-2.8990472079013,4.96796590346884,0.398
-2.90713506563297,4.96866541294355,0.399
-2.91578979064955,4.9699191088557,0.4
-2.92500314159477,4.97173365265754,0.401
-2.93466453163249,4.974065814034,0.402
-2.94472579644951,4.97686680705459,0.403
-2.95522764875604,4.98008890424503,0.404
-2.96613275886777,4.98372102222574,0.405
-2.97738222331011,4.98769792528318,0.406
-2.98889672933872,4.99198654327682,0.407
-3.000654631946,4.99654814136799,0.408
-3.01267965362218,5.00136804896083,0.409
-3.02490402794292,5.0064128877396,0.41
-3.03720577268247,5.01161711134755,0.411
-3.04955527116325,5.01689345564718,0.412
-3.06192737379189,5.02223845042985,0.413
-3.07426869556967,5.02762077234436,0.414
-3.08646765024583,5.03302109334865,0.415
-3.09853679168404,5.03841424892908,0.416
-3.11047994758473,5.04379301112767,0.417
-3.12220692072676,5.04913332182147,0.418
-3.13367943575164,5.05430991910189,0.419
-3.14489261934751,5.0592902452264,0.42
-3.15585597501791,5.06407113549366,0.421
-3.1665095659247,5.06864927178774,0.422
-3.17680123344507,5.07295371904221,0.423
-3.18676157596162,5.07695322972859,0.424
-3.19639672787675,5.08068832397146,0.425
-3.20566013009274,5.08405415627778,0.426
-3.21457112407446,5.08707501115461,0.427
-3.2231176331146,5.08972182636979,0.428
-3.23129246388442,5.09199159236699,0.429
-3.23905935341049,5.09386942716606,0.43
-3.24643247650798,5.09532149818011,0.431
-3.25338375707259,5.09637151810137,0.432
-3.25985108219456,5.09701116622759,0.433
-3.26588927495439,5.09722747805889,0.434
-3.2714808710407,5.09699143288893,0.435
-3.27659061515296,5.09633331226449,0.436
-3.28117494418503,5.0952552065905,0.437
-3.28526980885505,5.09375208690446,0.438
-3.28889537237882,5.09182792266233,0.439
-3.29203262893482,5.08950130337542,0.44
-3.29468203834732,5.08676340830106,0.441
-3.29683720317316,5.08366387060054,0.442
-3.29854585948318,5.08025025138874,0.443
-3.29983452007715,5.07644801802109,0.444
-3.30070639576989,5.07230109865613,0.445
-3.30116552607313,5.06782816650112,0.446
-3.30123498479617,5.06301760127872,0.447
-3.30095980509412,5.05789981286816,0.448
-3.300310487533,5.05246430649558,0.449
-3.29929575532944,5.04672065691907,0.45
-3.2979754020577,5.04069466939021,0.451
-3.2963541086328,5.03442492204725,0.452
-3.29441217470627,5.02790708127199,0.453
-3.29219420960864,5.02115466173816,0.454
-3.28974663563438,5.01424009616181,0.455
-3.28707878498547,5.00716967655623,0.456
-3.28421135573592,4.99995862104495,0.457
-3.28119160210804,4.99263260459159,0.458
-3.27804722588922,4.98526324604586,0.459
-3.27478063443888,4.9778653278572,0.46
-3.27144806843909,4.97046218379094,0.461
-3.26808511351087,4.96307715201311,0.462
-3.26469622677946,4.95577169012328,0.463
-3.26132474866084,4.94858940345072,0.464
-3.25801702919476,4.94156130259015,0.465
-3.2547830185616,4.9346770948603,0.466
-3.25163140861552,4.92794505639111,0.467
-3.24859733945064,4.92141127783181,0.468
-3.24567221718244,4.9150773120813,0.469
-3.24287432203241,4.90897235159066,0.47
-3.24022815987839,4.90315625539915,0.471
-3.23774054695581,4.89761638343472,0.472
-3.23539221204033,4.89234847152506,0.473
-3.23320083588567,4.88734909943887,0.474
