Drag (N),Lift (N),Time (s)
-2.449,4.632,0
-2.412423892046,4.60804704195031,0.001
-2.37595622283546,4.58413699897589,0.002
-2.33967196093789,4.5603330853738,0.003
-2.30365983625909,4.53670998844421,0.004
-2.26797469314181,4.51330965130129,0.005
-2.23264230493794,4.49021997771692,0.006
-2.1977956708923,4.46749126403359,0.007
-2.16350457078522,4.44515622993703,0.008
-2.12983961385641,4.42327702561844,0.009
-2.09683023883312,4.40189307177299,0.01
-2.0645709117189,4.38107504423285,0.011
-2.03310272505098,4.36081491795349,0.012
-2.00249203041719,4.34118651096571,0.013
-1.97277861038523,4.3222475903672,0.014
-1.94400407699745,4.30402387811384,0.015
-1.91624540712062,4.28653265226046,0.016
-1.88950723310065,4.26985576703881,0.017
-1.86383111293616,4.25395510841436,0.018
-1.83925404038025,4.23881072395526,0.019
-1.81580977539319,4.22449865510736,0.02
-1.79351399984646,4.2109878744567,0.021
-1.77236175265292,4.19828395405955,0.022
-1.75238199612818,4.18641538382612,0.023
-1.73359905947854,4.17538049038452,0.024
-1.71599291764915,4.1651837215723,0.025
-1.69953894834847,4.15582373166714,0.026
-1.6842687871342,4.14729066656087,0.027
-1.67017528860501,4.13954136830753,0.028
-1.65722487854931,4.13258582329698,0.029
-1.64541055008335,4.12637417417929,0.03
-1.63471910405606,4.12092880072116,0.031
-1.62512195163161,4.11618467814705,0.032
-1.61656447894675,4.11213250872759,0.033
-1.60904327780383,4.10874115991715,0.034
-1.60249534167955,4.10599644930922,0.035
-1.59686786818989,4.10381094352035,0.036
-1.59212565085175,4.10216941038095,0.037
-1.58822100309441,4.10104074967771,0.038
-1.5851102063749,4.1003766383144,0.039
-1.58273142325308,4.10011912769217,0.04
-1.58103082167883,4.10027026936038,0.041
-1.57996102814668,4.10073789215416,0.042
-1.57946119588584,4.10148274606776,0.043
-1.57946846252877,4.10248548246032,0.044
-1.57996634546326,4.103669999431,0.045
-1.58087716601486,4.10498773976277,0.046
-1.58214238413309,4.10642904729801,0.047
-1.5837219900444,4.10792971671733,0.048
-1.58556689250345,4.10945504336273,0.049
-1.58760121670827,4.11100318907994,0.05
-1.5897923937036,4.11251672359383,0.051
-1.59207399926076,4.11396829457126,0.052
-1.59439659416065,4.11536380053615,0.053
-1.59673761609614,4.11664727281342,0.054
-1.59904095191526,4.117814232876,0.055
-1.60124906374706,4.11885224057315,0.056
-1.60332667366067,4.11975168329541,0.057
-1.60526001886043,4.12050679669724,0.058
-1.60696556598959,4.12112774399686,0.059
-1.60843510735288,4.12158832041062,0.06
-1.60965630525239,4.12189409657268,0.061
-1.61058684824565,4.12210484892859,0.062
-1.61119329575297,4.12218023409155,0.063
-1.61147958835327,4.12214451715456,0.064
-1.61144156696028,4.12199672023156,0.065
-1.61105622065226,4.12171663585747,0.066
-1.61027990780119,4.12131381741784,0.067
-1.60912854916093,4.12083108590347,0.068
-1.60763709674506,4.12024825929604,0.069
-1.60575385583317,4.11957955059429,0.07
-1.60347558622289,4.11883462364772,0.071
-1.60080746394161,4.11802770878042,0.072
-1.59773870898671,4.11711428478564,0.073
-1.59425706126773,4.11615285219057,0.074
-1.59036380106182,4.1151207040606,0.075
-1.586093204521,4.11402865249268,0.076
-1.58141560006873,4.11288663649972,0.077
-1.57632552184535,4.11171840367488,0.078
-1.57086926409535,4.11051500273021,0.079
-1.56506287645083,4.1092729078148,0.08
-1.55889899189798,4.10797710889365,0.081
-1.55239734844716,4.10665450786314,0.082
-1.54557442118369,4.10531368344687,0.083
-1.53846676435755,4.10395426198872,0.084
-1.53106349854431,4.102614710356,0.085
-1.52338685756819,4.10134640502738,0.086
-1.51548327561075,4.10009898180211,0.087
-1.50734893184386,4.09890947608809,0.088
-1.49899028643188,4.09773694581125,0.089
-1.49047512608153,4.09661067831626,0.09
-1.48179013686248,4.09552320839346,0.091
-1.47299262571576,4.09451752169514,0.092
-1.4640579582868,4.09355373964904,0.093
-1.45505633026128,4.09273353198042,0.094
-1.44599546814156,4.09198942966283,0.095
-1.43690343839977,4.09136289812555,0.096
-1.42774823240262,4.09079540811112,0.097
-1.41857803106635,4.09031837727066,0.098
-1.4094196166829,4.08991406609981,0.099
-1.40030151156226,4.08964643273051,0.1
-1.39122108398981,4.08947709597103,0.101
-1.38217161592847,4.08944157961882,0.102
-1.37318438189884,4.08951365484651,0.103
-1.36430262130598,4.08969118281014,0.104
-1.3555290760416,4.08994194630703,0.105
-1.34689490404985,4.09030443871845,0.106
-1.33846455469978,4.09076464583117,0.107
-1.33027377684021,4.09132666386894,0.108
-1.32234190645566,4.09199603889798,0.109
-1.31471626786506,4.09276429479954,0.11
-1.30744773928363,4.0936054689745,0.111
-1.30055194742034,4.09451892084815,0.112
-1.29410367218662,4.09555862461906,0.113
-1.28813385889727,4.09667825924883,0.114
-1.28264980961921,4.09783864042437,0.115
-1.27770650983837,4.09905536808721,0.116
-1.27330543778879,4.10033149233796,0.117
-1.26948850323832,4.10165037304679,0.118
-1.26626307245144,4.1030281070344,0.119
-1.26365530530118,4.10451107775464,0.12
-1.26163787321863,4.10602987325461,0.121
-1.26024232394143,4.10760820993446,0.122
-1.25948730847121,4.10922717263309,0.123
-1.25935118278507,4.11086866618677,0.124
-1.25979049871111,4.11253618634229,0.125
-1.26078780767615,4.11422220163711,0.126
-1.2623755437874,4.11589315479376,0.127
-1.26449912017878,4.11756415056944,0.128
-1.26709129356377,4.11922195738921,0.129
-1.27013311849947,4.120825878586,0.13
-1.27357780809322,4.12236144143993,0.131
-1.27733971700185,4.12379946623459,0.132
-1.28137228742529,4.12516096368208,0.133
-1.28562743050107,4.12636706333839,0.134
-1.29000673274653,4.12743666801448,0.135
-1.29443059765421,4.12832409716645,0.136
-1.29882933281686,4.12901490248908,0.137
-1.30311921750298,4.12947930539208,0.138
-1.30720002066157,4.12968502996841,0.139
-1.31098040650789,4.12963161338879,0.14
-1.31438061295891,4.12932395071553,0.141
-1.31732183532901,4.12872022626588,0.142
-1.31971173705365,4.12782899041013,0.143
-1.32147052656209,4.12664388498477,0.144
-1.32252071190473,4.12512221481142,0.145
-1.3227912167601,4.12329084415339,0.146
-1.32222443906603,4.12114798259893,0.147
-1.32073649204864,4.11866309884636,0.148
-1.31827414837908,4.11589410818076,0.149
-1.31480266077551,4.11283495649019,0.15
-1.31028317404615,4.10950280234998,0.151
-1.30467366612604,4.10589388618552,0.152
-1.29795796784211,4.10202752106578,0.153
-1.2901215322429,4.09790430129637,0.154
-1.28112330058595,4.09355129075261,0.155
-1.27095918545652,4.08899305000713,0.156
-1.25962844604075,4.0842416899428,0.157
-1.24713318109765,4.07932439163697,0.158
-1.23344782841381,4.07425018885256,0.159
-1.21860887777203,4.06904587494132,0.16
-1.2026045929974,4.06373310733197,0.161
-1.18543652445182,4.05832650640949,0.162
-1.16712117964064,4.05282587316771,0.163
-1.14772890735033,4.04724585830948,0.164
-1.12726948434692,4.04161529427482,0.165
-1.10576133910472,4.03596776183926,0.166
-1.08327534494902,4.03037294143303,0.167
-1.05988666212263,4.02484183265215,0.168
-1.0356738360933,4.01942841250906,0.169
-1.01067294306521,4.01415536905518,0.17
-0.985004159242671,4.00906323982835,0.171
-0.958765137937109,4.00417157433495,0.172
-0.932046673836185,3.99953382357812,0.173
-0.904937628110595,3.99521236241175,0.174
-0.877546327983904,3.99120751361432,0.175
-0.849992663503278,3.98757646519231,0.176
-0.822332168790978,3.98436150531121,0.177
-0.794697395095964,3.98157649133194,0.178
-0.767171894043789,3.97924512391466,0.179
-0.739838985224644,3.97739604598702,0.18
-0.712808548091824,3.976094038039,0.181
-0.686163387542113,3.97536673687256,0.182
-0.660005188844362,3.97520036313771,0.183
-0.634425430228434,3.97561507386843,0.184
-0.609526609206487,3.97664852382889,0.185
-0.585420882827431,3.9782655085528,0.186
-0.562197483020469,3.98047343127544,0.187
-0.539950164978048,3.98333625476098,0.188
-0.518784258985364,3.98680986617603,0.189
-0.498782464730592,3.99095658390566,0.19
-0.47999260793939,3.99570393248066,0.191
-0.46250954469674,4.00106967338291,0.192
-0.446330406869931,4.00697985965966,0.193
-0.43150178484122,4.01346753870224,0.194
-0.418052531807125,4.02041644074469,0.195
-0.405987412368923,4.0278529949981,0.196
-0.39529110233754,4.0357155415119,0.197
-0.385972099889039,4.04406935777451,0.198
-0.378005891968751,4.05278882057693,0.199
-0.371336554245701,4.06181980888124,0.2
-0.365897158987092,4.07104858836287,0.201
-0.361657761835309,4.08045666234298,0.202
-0.358545557145966,4.08995818450549,0.203
-0.356442398060675,4.09954115154532,0.204
-0.355229695124233,4.10912717245299,0.205
-0.354840094716618,4.1186634720752,0.206
-0.355179132260649,4.12804218309347,0.207
-0.356075566228467,4.13716497454136,0.208
-0.357344753960612,4.14596863012446,0.209
-0.358898307255493,4.15437795322677,0.21
-0.360585430897898,4.16236683939025,0.211
-0.362234440779859,4.16986269845276,0.212
-0.363717395245484,4.17677187782291,0.213
-0.364855543961562,4.18299406475131,0.214
-0.365528868237945,4.18851035468782,0.215
-0.365661962612378,4.19326805383948,0.216
-0.365096626032571,4.1972256853204,0.217
-0.363751105307792,4.20034041519141,0.218
-0.361537470029764,4.20254151534415,0.219
-0.358400308888108,4.20384085226842,0.22
-0.354285975524924,4.20413809518786,0.221
-0.349190075228431,4.20346003384601,0.222
-0.343041025700157,4.20180366365849,0.223
-0.335836395797327,4.19917676778418,0.224
-0.327594855302087,4.19559077237187,0.225
-0.318411500171314,4.19105200931515,0.226
-0.308322005149337,4.1855833052081,0.227
-0.297336888271683,4.17921183369258,0.228
-0.28555563056423,4.17193543378368,0.229
-0.273113945728912,4.16386286577884,0.23
-0.260098184565328,4.15509703334039,0.231
-0.246616050328951,4.14568429283481,0.232
-0.232858736860083,4.13569876635259,0.233
-0.218964975638056,4.12520602855878,0.234
-0.205092535029114,4.11435561783564,0.235
-0.191455757665592,4.10314619063145,0.236
-0.178256428354765,4.09173728348086,0.237
-0.165666287883793,4.08024563476102,0.238
-0.153879095531262,4.06876256273643,0.239
-0.143104592282388,4.05736866259916,0.24
-0.133523188274187,4.04615857121759,0.241
-0.12531106349516,4.03518530051109,0.242
-0.118588018965458,4.02455909463631,0.243
-0.113517890379118,4.01432680742227,0.244
-0.110225910413195,4.00456599570019,0.245
-0.108826136759879,3.99539443626853,0.246
-0.109352568901963,3.98684716144183,0.247
-0.111861033902767,3.97897104840608,0.248
-0.11644142945511,3.97182651551778,0.249
-0.123117585994341,3.96542943350101,0.25
-0.131835061001197,3.95979543641632,0.251
-0.142598767450539,3.95490301976256,0.252
-0.155352544848016,3.9508186430049,0.253
-0.170058834771166,3.9475455751667,0.254
-0.186619653121102,3.94508542533019,0.255
-0.204969329382637,3.94344098192767,0.256
-0.225014902237213,3.94258347737089,0.257
-0.246643175337633,3.9424868465034,0.258
-0.269726681932724,3.94312638827148,0.259
-0.294135126783323,3.94449840888382,0.26
-0.319744024870113,3.94656224474284,0.261
-0.346402339528243,3.94935080838717,0.262
-0.373937103001679,3.95282884459029,0.263
-0.402197911624135,3.95695697617541,0.264
-0.430988162297811,3.96175789325688,0.265
-0.460148656676327,3.96718076215862,0.266
-0.489485160399223,3.97317166214123,0.267
-0.51878523500958,3.97966136342717,0.268
-0.547880222740669,3.98662441076535,0.269
-0.576510227333299,3.99399110944533,0.27
-0.604486221606181,4.00173570660935,0.271
-0.631593753208255,4.00980919126592,0.272
-0.657636310183883,4.01819135875023,0.273
-0.682417637835326,4.02680318879423,0.274
-0.705796662077089,4.03558670277376,0.275
-0.72762028554441,4.04449421593763,0.276
-0.74770482194251,4.0534603804214,0.277
-0.765950174456957,4.06245476051497,0.278
-0.782187234881731,4.07142919836886,0.279
-0.796355574317419,4.08035102408591,0.28
-0.808356730369672,4.08919871788749,0.281
-0.818083378934432,4.09786300654396,0.282
-0.825489559525779,4.10631991603892,0.283
-0.830530068096321,4.11457189161172,0.284
-0.833177479698491,4.12263110333516,0.285
-0.833374250756118,4.13042362548504,0.286
-0.831127797002293,4.13794762989988,0.287
-0.826472684722806,4.1451712081297,0.288
-0.819404839660579,4.15205305482702,0.289
-0.809927299074694,4.15862244067004,0.29
-0.798154265283429,4.16485695071853,0.291
-0.784181395389803,4.17082586408115,0.292
-0.768139007008072,4.17649500324464,0.293
-0.750218901640066,4.18196069364581,0.294
-0.730637211589023,4.18721819181265,0.295
-0.709553480234524,4.19233617611156,0.296
-0.687222402014375,4.1973672810699,0.297
-0.663930600994139,4.20234414078604,0.298
-0.639953766422365,4.20729333913939,0.299
-0.615534638959706,4.21235574403076,0.3
-0.59099443678028,4.21759336699312,0.301
-0.566632462136644,4.22305906109138,0.302
-0.542764470155956,4.22881504411433,0.303
-0.519665498763996,4.23497108629928,0.304
-0.49762794800111,4.24156294895657,0.305
-0.476951803336162,4.24868560097671,0.306
-0.457903138496809,4.25636653376081,0.307
-0.440743228796617,4.26471300284515,0.308
-0.42573698055547,4.27382234348408,0.309
-0.413140627671749,4.28369510179153,0.31
-0.403148682223907,4.29442650588736,0.311
-0.39595594615225,4.30602792427056,0.312
-0.391739987897336,4.31854958833955,0.313
-0.390653950080417,4.33201700877028,0.314
-0.392878264872155,4.34649213805346,0.315
-0.398478864842451,4.36197588363242,0.316
-0.407439564022954,4.37849448626543,0.317
-0.419845441819659,4.39598399763791,0.318
-0.435721708861672,4.41447334198238,0.319
-0.455033552626043,4.4339191799269,0.32
-0.477636439367971,4.4542137748636,0.321
-0.503477841277531,4.47540478880557,0.322
-0.532426358472935,4.49739259640574,0.323
-0.564321775420432,4.52010925165354,0.324
-0.598978905656009,4.5435057593548,0.325
-0.636239547350012,4.56749589508872,0.326
-0.675769012967478,4.59197582289892,0.327
-0.717362721799693,4.61686123893187,0.328
-0.760784203383591,4.64209721745912,0.329
-0.805726364411183,4.66761253571742,0.33
-0.851859834128962,4.69320095666758,0.331
-0.898919940034265,4.71873177014279,0.332
-0.946551858945627,4.74415611400629,0.333
-0.994416183628568,4.76932388456713,0.334
-1.04216344168769,4.79411360343427,0.335
-1.08945331314095,4.81840533469989,0.336
-1.13591866383345,4.84213620728156,0.337
-1.18123236513387,4.86517762568321,0.338
-1.22504047018309,4.88740706208812,0.339
-1.26703011297045,4.90872022397092,0.34
-1.30693042921549,4.92909852751793,0.341
-1.34447076559271,4.94844626234798,0.342
-1.3793545469193,4.96668899376857,0.343
-1.41144021430973,4.98375386995927,0.344
-1.44053560842917,4.99968200267098,0.345
-1.46647707845549,5.01439103559206,0.346
-1.48912395663528,5.0278056091312,0.347
-1.5084488082343,5.03995805540983,0.348
-1.52443287655453,5.05085477740177,0.349
-1.53702517357885,5.06049298280153,0.35
-1.54617187745994,5.06887727933716,0.351
-1.55196381731808,5.07606343990671,0.352
-1.55445718120683,5.08212226783007,0.353
-1.55375208015618,5.08708210342525,0.354
-1.54992341875626,5.09098098149192,0.355
-1.54310868461533,5.09385673383975,0.356
-1.53343253223483,5.09578126140891,0.357
-1.52105730578031,5.09684640458826,0.358
-1.50615562793365,5.09713936111776,0.359
-1.48891288878327,5.09669544735566,0.36
-1.46955383956531,5.09558929058524,0.361
-1.44824633109854,5.0938930315237,0.362
-1.42522200899333,5.09164793111295,0.363
-1.40073917713646,5.08893415359962,0.364
-1.37500343207421,5.08581810072883,0.365
-1.34823299595658,5.08233598411342,0.366
-1.32065355095735,5.07855199630413,0.367
-1.29255717846462,5.0745586930987,0.368
-1.26414960231826,5.07042093117648,0.369
-1.23561735314902,5.06616753401524,0.37
-1.2072534243652,5.06185150904814,0.371
-1.17928287400577,5.05755191891697,0.372
-1.15190823068702,5.05329283172632,0.373
-1.1253439806257,5.04910404587685,0.374
-1.09976811183068,5.04510596044674,0.375
-1.075321648364,5.04132409644693,0.376
-1.05215250629084,5.03778644994875,0.377
-1.03043571560963,5.03457846205399,0.378
-1.01028303418122,5.03171026249914,0.379
-0.991843484734222,5.02922871303991,0.38
-0.975225734514514,5.02716693944795,0.381
-0.960533158669639,5.02554549276352,0.382
-0.947848270885709,5.02442044558644,0.383
-0.937255630697484,5.02378256422321,0.384
-0.928795034445454,5.02368001701811,0.385
-0.922520666770179,5.02404260038374,0.386
-0.918493564455618,5.02488647088717,0.387
-0.916697002915801,5.02627584406908,0.388
-0.917081331602646,5.02821883390534,0.389
-0.919674426593395,5.03067687956333,0.39
-0.924499962205981,5.03362167147453,0.391
-0.931442997176005,5.03704099090102,0.392
-0.940432689346534,5.04089569340118,0.393
-0.951349252814947,5.04518535824138,0.394
-0.964066569486584,5.04982388346227,0.395
-0.978434989127318,5.05476246253023,0.396
-0.994322640650508,5.05995704782063,0.397
-1.01157816346249,5.06536085750462,0.398
-1.03001143411746,5.07093481588672,0.399
-1.04939907178861,5.07658247649867,0.4
-1.06965379960013,5.08218820834411,0.401
-1.09059026599131,5.08774895582369,0.402
-1.11203343386439,5.0932129633401,0.403
-1.13374828230453,5.09854883866916,0.404
-1.1556008659129,5.10361843865011,0.405
-1.1774714994459,5.10838484308445,0.406
-1.19922002084781,5.11279761718793,0.407
-1.22066689706897,5.11685804602269,0.408
-1.24164408788987,5.12048247768691,0.409
-1.26209437911989,5.12360552429003,0.41
-1.28192992788449,5.12627200537637,0.411
-1.30101632592025,5.12838565863572,0.412
-1.31928674266928,5.12991720630375,0.413
-1.33674951065697,5.13082490356042,0.414
-1.3533482942803,5.1311461354582,0.415
-1.36893324976572,5.13084849730325,0.416
-1.38352353332218,5.12990900150768,0.417
-1.39721662096153,5.12832889332087,0.418
-1.4099815303797,5.12621380434896,0.419
-1.42174359907408,5.12349302982773,0.42
-1.4325315007897,5.12027097773572,0.421
-1.44250785862286,5.11661365123351,0.422
-1.45160674390491,5.11250482272199,0.423
-1.45986177671377,5.1080210288907,0.424
-1.46736427281272,5.1031932162503,0.425
-1.47417673544606,5.09802198133096,0.426
-1.48030233753271,5.09254438290197,0.427
-1.48588010089248,5.08684567490735,0.428
-1.49091238143092,5.08093814027471,0.429
-1.49545144924846,5.07480141604202,0.43
-1.49959889837212,5.06849135125645,0.431
-1.5034310312744,5.06213087397857,0.432
-1.50695090075204,5.05569786515584,0.433
-1.51032680097833,5.04921342461235,0.434
-1.51358544435859,5.04278742092457,0.435
-1.51680283564427,5.03640534233622,0.436
-1.5200828474056,5.03007624596879,0.437
-1.52348563032069,5.02386035747185,0.438
-1.52705112658621,5.01774709342934,0.439
-1.5308775592417,5.01175937949216,0.44
-1.53504157275604,5.00595611682094,0.441
-1.53954520385141,5.00031615676523,0.442
-1.54442956790224,4.9948540832168,0.443
-1.54977671477561,4.98963697509784,0.444
-1.55552776278098,4.98467211197992,0.445
-1.56170583470426,4.9799037628907,0.446
-1.56832501284453,4.97538521604437,0.447
-1.5753879837367,4.97113847403966,0.448
-1.58282876912304,4.9671207050888,0.449
-1.59057773455608,4.96335263698642,0.45
-1.59860703065606,4.95981172951607,0.451
-1.60694675636387,4.95647606685389,0.452
-1.61554296400654,4.95331088678801,0.453
-1.624296599447,4.95029887800813,0.454
-1.63314212861057,4.94738784374897,0.455
-1.64205770325883,4.94458605123091,0.456
-1.65098748389909,4.94188817155847,0.457
-1.65990235122791,4.93924965317023,0.458
-1.66873044903729,4.93660921870425,0.459
-1.67742588294316,4.9339287885285,0.46
-1.68595408996709,4.93124561106164,0.461
-1.69424740392407,4.92849307904523,0.462
-1.70229051945714,4.9256771466918,0.463
-1.71002105569652,4.92271572986111,0.464
-1.71738824965658,4.91957962416175,0.465
-1.72438022165707,4.91625010871003,0.466
-1.73097338836576,4.91271258985559,0.467
-1.73713944878033,4.90898584783464,0.468
-1.7427596158556,4.90503171821789,0.469
-1.74788431144983,4.90083524230654,0.47
-1.75252052236232,4.89642527273212,0.471
-1.75661535496431,4.89178354358653,0.472
-1.7601590337794,4.88688024940784,0.473
-1.76313550092559,4.88173502024171,0.474
