Drag (N),Lift (N),Time (s)
0.945,-0.473,0
0.957047291211297,-0.486215118701396,0.001
0.96912225916588,-0.499416676586016,0.002
0.981212769133901,-0.512563902176582,0.003
0.993359768569131,-0.525651778276177,0.004
1.00553913902955,-0.538661354171732,0.005
1.01777091455343,-0.551594668105423,0.006
1.03003938563983,-0.564473690375936,0.007
1.04234328641442,-0.577230946770076,0.008
1.05467875704606,-0.589877555888656,0.009
1.06702568492458,-0.602381571505046,0.01
1.07939859595891,-0.614734160184744,0.011
1.09177148253482,-0.62687962780435,0.012
1.10414175813453,-0.638833548782247,0.013
1.11646194370153,-0.650581769890539,0.014
1.12873988931104,-0.662096478372477,0.015
1.1409767009218,-0.673397189056704,0.016
1.15314492600451,-0.684427143482479,0.017
1.16522186624535,-0.695190215185325,0.018
1.17716649339086,-0.705672477063541,0.019
1.18898485777472,-0.71583174908977,0.02
1.20061640391375,-0.725641469661693,0.021
1.21206306152915,-0.735086753019862,0.022
1.22327414146084,-0.744136972641457,0.023
1.2342275862482,-0.752794903529892,0.024
1.2448666379973,-0.76106715847517,0.025
1.25515879320555,-0.768919014179059,0.026
1.26505392945638,-0.77633512638619,0.027
1.2745425332376,-0.783287411096757,0.028
1.28355662079933,-0.789768392132826,0.029
1.29209380955849,-0.795730774945911,0.03
1.30010136422415,-0.801190102003719,0.031
1.30754593293776,-0.806119992752777,0.032
1.31437417033992,-0.810532626213781,0.033
1.32059080186875,-0.814385869031074,0.034
1.32619542764237,-0.817675536425896,0.035
1.33113408060347,-0.820371727460849,0.036
1.33540036030351,-0.822505268126361,0.037
1.33895411592171,-0.824065360315202,0.038
1.34177144904673,-0.825052911013551,0.039
1.34388376524568,-0.825439860054051,0.04
1.34527086670354,-0.825296908966169,0.041
1.34592803795272,-0.824600353868437,0.042
1.34588455701719,-0.823339753992055,0.043
1.34514246239778,-0.821509374464257,0.044
1.34372846656531,-0.819155244806613,0.045
1.34162092061223,-0.816307794143081,0.046
1.33885537583004,-0.812993500679864,0.047
1.33549927969184,-0.809202718651894,0.048
1.33155194939587,-0.804976484123911,0.049
1.32704715494527,-0.800327168213086,0.05
1.3220431828956,-0.795303545585707,0.051
1.31659793869558,-0.789923020900862,0.052
1.31072395429123,-0.784234214470302,0.053
1.304461049615,-0.778254605050811,0.054
1.29789584712162,-0.772012777072682,0.055
1.29112606133071,-0.765538247500795,0.056
1.28415748649369,-0.758892537082425,0.057
1.27706864732252,-0.752090915961596,0.058
1.26993012384846,-0.745158805118063,0.059
1.26281386464713,-0.73813682892678,0.06
1.25575255352403,-0.731092671456893,0.061
1.24881252715446,-0.724078829065688,0.062
1.24207474314674,-0.717110748392088,0.063
1.23557984315419,-0.710245165263225,0.064
1.22941004786551,-0.703505352618553,0.065
1.22364865213866,-0.696949635816247,0.066
1.21834224395997,-0.69059264340234,0.067
1.21360133499835,-0.684462972055375,0.068
1.20943500177614,-0.678616335857549,0.069
1.20589028967869,-0.673095993543885,0.07
1.20306112041446,-0.667916697008667,0.071
1.20095851218103,-0.663133503484154,0.072
1.19960691060569,-0.658754124130931,0.073
1.19903659320285,-0.654806385213704,0.074
1.19933630277662,-0.651310080654204,0.075
1.20047984052557,-0.648293019684227,0.076
1.20245451142113,-0.645744438915727,0.077
1.20529628295577,-0.643682498668985,0.078
1.20901681732191,-0.642076936326512,0.079
1.21361191185876,-0.64091611711601,0.08
1.21904141598548,-0.640170839585782,0.081
1.2252575620606,-0.639834285736543,0.082
1.23227579306343,-0.639873777265709,0.083
1.24005528231908,-0.640296461603835,0.084
1.24856351680553,-0.641076570976268,0.085
1.25773712049994,-0.642173771607911,0.086
1.26755062210275,-0.643610333116925,0.087
1.27797364090795,-0.645324476455556,0.088
1.28890126073009,-0.647297127355789,0.089
1.30031334734949,-0.649503391154925,0.09
1.31215572283373,-0.651871930329185,0.091
1.32436469169554,-0.654396397243583,0.092
1.33685009972416,-0.657036361043631,0.093
1.34960171985931,-0.659752515814189,0.094
1.36255927347014,-0.662510938856609,0.095
1.37558154392986,-0.665308220307846,0.096
1.3886464917296,-0.668092486036208,0.097
1.40168734779195,-0.670820216626048,0.098
1.41465386705158,-0.673439826757313,0.099
1.42742915701975,-0.675955122471555,0.1
1.43998458049776,-0.67834087285519,0.101
1.45225939265858,-0.680578354937938,0.102
1.46417774469278,-0.682637192748825,0.103
1.47571038075685,-0.684517654602613,0.104
1.48680617192503,-0.686175622439146,0.105
1.49743545190019,-0.687620637193011,0.106
1.50756833055707,-0.68884367330741,0.107
1.51716428959667,-0.689807885023189,0.108
1.52623126996415,-0.690535682303826,0.109
1.53474423560341,-0.691021048264491,0.11
1.54267993595017,-0.691275058178687,0.111
1.55002695427354,-0.69127890290049,0.112
1.55680088222285,-0.691089370648245,0.113
1.5629616565453,-0.690702247897388,0.114
1.56854318142683,-0.690116390373603,0.115
1.57357154137208,-0.689363190848186,0.116
1.5780087058172,-0.688426811472304,0.117
1.58188050545278,-0.687334463551996,0.118
1.58523586224024,-0.686068371977965,0.119
1.58810754423778,-0.684658045090056,0.12
1.59049210394908,-0.68314885191587,0.121
1.59243306894,-0.681581303216104,0.122
1.59394189760305,-0.679982169959137,0.123
1.59510252347214,-0.678373358779652,0.124
1.59594223498063,-0.676785753363309,0.125
1.5965336562657,-0.675225809700006,0.126
1.59688114543657,-0.673715755028927,0.127
1.59705641178057,-0.672285507994406,0.128
1.59709437906743,-0.670972977897146,0.129
1.59706709616929,-0.669777724936752,0.13
1.59695027748607,-0.668759860232017,0.131
1.59681174222707,-0.667905303830854,0.132
1.59670959900945,-0.667243955371166,0.133
1.59668471011042,-0.666761413242714,0.134
1.59674034251681,-0.666513541351219,0.135
1.59690988413857,-0.666514029411621,0.136
1.59723751210195,-0.666800988327679,0.137
1.5977318253139,-0.667350186126872,0.138
1.59846260675492,-0.668177226892577,0.139
1.59945764940615,-0.669289209289729,0.14
1.60071056941827,-0.670744786160285,0.141
1.60223810401104,-0.672457585431761,0.142
1.60408587349305,-0.674480818835744,0.143
1.6062245630909,-0.676823768860913,0.144
1.60867230019313,-0.679512853463899,0.145
1.61144174015476,-0.682489497512797,0.146
1.61456753714047,-0.685751888516265,0.147
1.61804923818995,-0.689269430618772,0.148
1.62182890739086,-0.693086442429559,0.149
1.62590121332214,-0.697161285998595,0.15
1.63027440116872,-0.701485801836301,0.151
1.63494476705537,-0.706029374248828,0.152
1.63983472449634,-0.71079570955896,0.153
1.64499697060925,-0.715720434636791,0.154
1.65037668494207,-0.720819332603255,0.155
1.65595238258295,-0.726054410381731,0.156
1.66162982173393,-0.731408009829513,0.157
1.66741786522326,-0.736823793902961,0.158
1.67329682483975,-0.742291889902516,0.159
1.67920639617753,-0.747806560288578,0.16
1.68511139030522,-0.753342012433691,0.161
1.69101215798946,-0.758860152207327,0.162
1.69683690122055,-0.764317467496774,0.163
1.70256734016628,-0.769686167798164,0.164
1.70817910363688,-0.774932256115617,0.165
1.71363849280131,-0.780055827646369,0.166
1.71889441710422,-0.785017085765779,0.167
1.72390966300402,-0.789802925219863,0.168
1.72865123569828,-0.794399326281535,0.169
1.7331094046959,-0.798766615054194,0.17
1.73726397999203,-0.802889181597113,0.171
1.74104019591032,-0.806774701274547,0.172
1.74444727798189,-0.810383948029832,0.173
1.74751558296379,-0.813693813673161,0.174
1.75025217426866,-0.816735493858486,0.175
1.75256658839824,-0.819483116360088,0.176
1.75448972953251,-0.821925203617034,0.177
1.75605054800758,-0.824093207647381,0.178
1.75724295445248,-0.825992170405999,0.179
1.75804596740078,-0.827663859079573,0.18
1.7584495865862,-0.829092825462543,0.181
1.75852019039669,-0.830317773169341,0.182
1.75829171658549,-0.831363207131406,0.183
1.7577247577884,-0.832272917612676,0.184
1.75684180772967,-0.833025154270946,0.185
1.75565740365924,-0.833650475660252,0.186
1.75422101139236,-0.834199648249292,0.187
1.75251116595184,-0.834673647750985,0.188
1.75054996033037,-0.835094771611967,0.189
1.74838685371335,-0.835495520324779,0.19
1.74601193639718,-0.835857493177406,0.191
1.74346515444615,-0.836253149732007,0.192
1.74079125699873,-0.836676513316211,0.193
1.73800989579032,-0.837158116849958,0.194
1.73509405666383,-0.837729281695342,0.195
1.73206554013014,-0.838393658576794,0.196
1.72903630920323,-0.839169269020635,0.197
1.72597814622286,-0.840078875658983,0.198
1.72287580561086,-0.841124023874786,0.199
1.71979099705332,-0.842347255195443,0.2
1.7167561204874,-0.843737639568735,0.201
1.71375885492386,-0.845319610226036,0.202
1.71080391140421,-0.847066193820158,0.203
1.70792589515373,-0.84900459790402,0.204
1.70512044798474,-0.851157358393717,0.205
1.70236640280229,-0.853511558603079,0.206
1.69968538171328,-0.85605926703252,0.207
1.69705859247935,-0.858785614989722,0.208
1.69450357364113,-0.861686933093848,0.209
1.69201393903632,-0.864764520402474,0.21
1.68955855453352,-0.867979943900257,0.211
1.68717274900333,-0.871331901644284,0.212
1.68482597471245,-0.874819362664248,0.213
1.68249810747416,-0.878406485214195,0.214
1.68022663737085,-0.882083030873247,0.215
1.67799401792472,-0.885827511766583,0.216
1.67576579472967,-0.889619287167389,0.217
1.67356270338831,-0.893451952482812,0.218
1.67137868059409,-0.89731011069038,0.219
1.66917752595425,-0.901195494376502,0.22
1.66695419187794,-0.905077154677938,0.221
1.66470765143103,-0.908934402827112,0.222
1.66243967093835,-0.912724088551147,0.223
1.66016494554351,-0.916424098517505,0.224
1.65782887495253,-0.920052040996959,0.225
1.65541905164602,-0.92356234108542,0.226
1.65294536957869,-0.926955079574451,0.227
1.65040057567786,-0.93022516957245,0.228
1.64777201147589,-0.933343728545776,0.229
1.64507154803495,-0.936292098735031,0.23
1.64226268075616,-0.939087288697699,0.231
1.63939480589249,-0.941689759368615,0.232
1.63642742491431,-0.944117723806094,0.233
1.63336862971518,-0.946362968107994,0.234
1.63024963707436,-0.94842286627262,0.235
1.62705868853865,-0.950279908282445,0.236
1.62379992771811,-0.9519304425265,0.237
1.62046361251862,-0.95334665009461,0.238
1.61709196106931,-0.954558558864632,0.239
1.6136608470681,-0.955568246573678,0.24
1.61016523609317,-0.956367860638766,0.241
1.60660694738192,-0.95692756834594,0.242
1.60300708442094,-0.957295077830526,0.243
1.599356396635,-0.95745932421814,0.244
1.59570198091674,-0.957418938472203,0.245
1.59204327781349,-0.957152736268764,0.246
1.58836035227594,-0.956700725533845,0.247
1.58464970057632,-0.956040626767365,0.248
1.58093700076848,-0.955205306346443,0.249
1.57721988301959,-0.954209304854027,0.25
1.57352467943384,-0.953052625933954,0.251
1.5698546496833,-0.951748677430926,0.252
1.56618348112091,-0.950297903960963,0.253
1.56258901711051,-0.948707901787233,0.254
1.55900862969988,-0.947007238391683,0.255
1.55551031513237,-0.945190105292563,0.256
1.5520619884951,-0.943291775210963,0.257
1.54869602237939,-0.941315773655216,0.258
1.54543531963092,-0.939291541917945,0.259
1.54225604858983,-0.93720244912731,0.26
1.53919582627351,-0.935069653700534,0.261
1.53625147530165,-0.932930411665456,0.262
1.5333763280001,-0.930784700582207,0.263
1.53064081020819,-0.928638747777801,0.264
1.52803520458161,-0.926530342038957,0.265
1.52554628718203,-0.924449289395364,0.266
1.52316465784754,-0.922415724904835,0.267
1.5208857777699,-0.920430046637043,0.268
1.51875883498372,-0.918505032204086,0.269
1.51673223171464,-0.916661722631111,0.27
1.51481564666013,-0.914905711315416,0.271
1.51301187544091,-0.91324596298793,0.272
1.51131388995918,-0.911671293920503,0.273
1.50974655728687,-0.910191903150474,0.274
1.50828063531922,-0.908860338304784,0.275
1.50686092679283,-0.907613851079795,0.276
1.50554149837958,-0.906475461981707,0.277
1.50429750914931,-0.905459108454092,0.278
1.50312970717202,-0.90455202340787,0.279
1.50198758666577,-0.903761145365038,0.28
1.5008952463543,-0.903055836376244,0.281
1.49987898518229,-0.902451688701928,0.282
1.49887419055016,-0.901947487254613,0.283
1.49787444591307,-0.901510075369477,0.284
1.49690083709458,-0.901143819474619,0.285
1.49591150330864,-0.900867229835506,0.286
1.49494131385473,-0.900654059903017,0.287
1.49396212856735,-0.900497503653117,0.288
1.49297650776287,-0.900384700828167,0.289
1.49196719845223,-0.900327555637421,0.29
1.49095480930716,-0.900297706021618,0.291
1.48994265602054,-0.900349364828336,0.292
1.48886809528426,-0.900401139729354,0.293
1.48772657573437,-0.900472362415678,0.294
1.48655188345041,-0.900571307951315,0.295
1.4853162613472,-0.900689934326307,0.296
1.48403950059201,-0.900816177400007,0.297
1.48267194297414,-0.900952342792727,0.298
1.48123074721918,-0.9010804302366,0.299
1.47974525043245,-0.901213601769408,0.3
1.47816345826102,-0.901329040878295,0.301
1.47650009845705,-0.901435354002218,0.302
1.47475898551053,-0.901474186357283,0.303
1.47295632679117,-0.901518832037231,0.304
1.47106856773162,-0.901536353012493,0.305
1.46908255894287,-0.901493184890546,0.306
1.46702763537099,-0.901415990558485,0.307
1.46490998695339,-0.90129389328905,0.308
1.46274324051664,-0.901139873941548,0.309
1.46049471232954,-0.900953616587082,0.31
1.45816548001841,-0.900700419117214,0.311
1.4558055723976,-0.900412970162493,0.312
1.45337077065758,-0.900073385822321,0.313
1.45087066610428,-0.899695503018332,0.314
1.4483038913967,-0.899266751029751,0.315
1.44567930053708,-0.89876949632352,0.316
1.44299199797526,-0.898212917918383,0.317
1.44021496134316,-0.897590637251094,0.318
1.4373697626635,-0.896898379283904,0.319
1.43443333876371,-0.896141743888166,0.32
1.43142089075335,-0.89530425361078,0.321
1.42833585769478,-0.894387029999,0.322
1.42516086614046,-0.893374604332176,0.323
1.42190186238457,-0.892305112880957,0.324
1.41853257575331,-0.891150189242347,0.325
1.41508092627441,-0.889891369464007,0.326
1.41156579127766,-0.888560383965011,0.327
1.40791917880106,-0.887122987790737,0.328
1.40418226821412,-0.885588900721218,0.329
1.40037327278447,-0.883958785414851,0.33
1.39645795342401,-0.882247631770619,0.331
1.39243963261807,-0.880441178716193,0.332
1.38830863093431,-0.87852772542038,0.333
1.38410792828803,-0.876504223919336,0.334
1.37979995755837,-0.874374236990618,0.335
1.37536183425893,-0.872130621942121,0.336
1.37080190438565,-0.869784855180859,0.337
1.36611988339071,-0.867321537133831,0.338
1.36134136782499,-0.864781421211573,0.339
1.35640041244361,-0.862140769141605,0.34
1.35133772087378,-0.859386541605618,0.341
1.34617201679046,-0.856530408936566,0.342
1.34090192686932,-0.853600351287231,0.343
1.33551833757861,-0.850578729921412,0.344
1.33004230814562,-0.847454865224044,0.345
1.32447355121456,-0.844252158722463,0.346
1.31880251771724,-0.840980987155466,0.347
1.31304992028925,-0.837646601543686,0.348
1.30724443671688,-0.83430328944433,0.349
1.30137404250709,-0.830912394287031,0.35
1.29547325680555,-0.827453677660134,0.351
1.28952868147786,-0.823975301744073,0.352
1.28354841058584,-0.820485158098744,0.353
1.27755693420285,-0.816998068023557,0.354
1.27153454655648,-0.813514832384012,0.355
1.26552028300179,-0.810038972229339,0.356
1.25948280510666,-0.806585839647401,0.357
1.25344190439839,-0.803171448401476,0.358
1.24742905339937,-0.799787069023358,0.359
1.24142021870116,-0.796459603810618,0.36
1.23543508453773,-0.793236960210623,0.361
1.22948281315183,-0.790088646029487,0.362
1.22358531420972,-0.787000029068985,0.363
1.21781178052577,-0.784014801234213,0.364
1.21210033905848,-0.78115032328419,0.365
1.20646020523402,-0.77840121692558,0.366
1.20093820435456,-0.775826297490732,0.367
1.19555354817979,-0.773410938069089,0.368
1.1903152899106,-0.771187437172532,0.369
1.18518923988353,-0.76918187790028,0.37
1.18023566264189,-0.767395433232865,0.371
1.17545767372897,-0.76585128466554,0.372
1.17085572959464,-0.764571756708093,0.373
1.16648402131555,-0.763582070238176,0.374
1.1623029858271,-0.762889791732078,0.375
1.15831285121736,-0.762461787638363,0.376
1.15456649480519,-0.762376490809238,0.377
1.15105694959091,-0.7626519482478,0.378
1.14780300831835,-0.76326872173807,0.379
1.14478842590946,-0.764248943178378,0.38
1.14206114101337,-0.765583065722305,0.381
1.13960579381043,-0.767322790618807,0.382
1.13739774032353,-0.769459672837462,0.383
1.13547826539559,-0.771981482951796,0.384
1.13383829661827,-0.77492903516306,0.385
1.1324561534531,-0.778265489349539,0.386
1.13140113660283,-0.78199259401681,0.387
1.13061710082574,-0.786132763545414,0.388
1.13008359842278,-0.790656489341462,0.389
1.12985243946972,-0.795562369141359,0.39
1.12988737635404,-0.800841324846974,0.391
1.1301686560701,-0.806486148392573,0.392
1.13068168225615,-0.812465386906291,0.393
1.13146472734848,-0.818822462544707,0.394
1.13251501078299,-0.825528927812482,0.395
1.13378462244364,-0.832534530724967,0.396
1.1353010998935,-0.839814218857153,0.397
1.13701827803707,-0.847377900643256,0.398
1.13892911834878,-0.855176038466992,0.399
1.14102691422156,-0.86320006627292,0.4
1.14329939043856,-0.871410793601243,0.401
1.14571657034606,-0.879781487207947,0.402
1.1482497903184,-0.888255668980948,0.403
1.15087497563654,-0.896866774762102,0.404
1.15359645650549,-0.905498264835256,0.405
1.15637361474631,-0.914147677428193,0.406
1.15919853423407,-0.922789268032664,0.407
1.16206816597695,-0.931385295810483,0.408
1.16492098893461,-0.939907197049,0.409
1.16773462568049,-0.948298645943328,0.41
1.17052156629357,-0.956512268022926,0.411
1.17325790773666,-0.964545031322467,0.412
1.1759042820958,-0.972346407573944,0.413
1.17845070992033,-0.979890584447961,0.414
1.18089712119067,-0.987131813301198,0.415
1.18322853025877,-0.994045779807485,0.416
1.1853877836876,-1.00061450718944,0.417
1.18737089259378,-1.00679962297902,0.418
1.18919927570648,-1.0125768161834,0.419
1.19082642291025,-1.01792552070014,0.42
1.19225535391554,-1.02282036321642,0.421
1.19344853399966,-1.02723947422594,0.422
1.19440677176129,-1.03116864109203,0.423
1.19512413093344,-1.03460109988766,0.424
1.19558955626843,-1.0374939893241,0.425
1.19579025069436,-1.03984941971593,0.426
1.19572813272361,-1.04165788842678,0.427
1.19536287969378,-1.04289827417153,0.428
1.19472646473315,-1.04359562036147,0.429
1.19381829478273,-1.04374888779105,0.43
1.19260575440008,-1.04336286308676,0.431
1.19109846750378,-1.04242279617985,0.432
1.18931246178098,-1.04092869322663,0.433
1.18725749733466,-1.03892033426193,0.434
1.18491894094894,-1.03639864570868,0.435
1.18231724975031,-1.03336719040173,0.436
1.17945021586766,-1.02987334223291,0.437
1.17634926944117,-1.02589812862076,0.438
1.17303183604123,-1.02149734117559,0.439
1.16947888131242,-1.01667475793567,0.44
1.16575785783985,-1.01145312290242,0.441
1.16184090731068,-1.00588354868597,0.442
1.15774071036948,-0.999991596490511,0.443
1.15348579942303,-0.993772908742073,0.444
1.14909103483145,-0.98731169240233,0.445
1.14454992059354,-0.980643989039439,0.446
1.13988270417717,-0.973774895951607,0.447
1.13512385622714,-0.96676804619273,0.448
1.13027143577449,-0.959638174799585,0.449
1.12535095542395,-0.952395138324378,0.45
1.12037948239043,-0.945117717353221,0.451
1.11537760591016,-0.937834663492218,0.452
1.11036865057854,-0.930568521943542,0.453
1.10536619848386,-0.923364860079984,0.454
1.10039920718987,-0.916246194562833,0.455
1.09548667167451,-0.909257741895939,0.456
1.09062249978016,-0.902450843889469,0.457
1.08584340011632,-0.895826453940813,0.458
1.08120701751209,-0.889400433513915,0.459
1.07666913672548,-0.883227763720033,0.46
1.07227332041144,-0.877292115144638,0.461
1.0680323854732,-0.871594961154128,0.462
1.06392590897034,-0.866171050325025,0.463
1.05995322792309,-0.861021383205469,0.464
1.05610606391014,-0.856131653289478,0.465
1.05242870173618,-0.851528006716893,0.466
1.04890793670206,-0.847201633286638,0.467
1.04553760979474,-0.84311038289029,0.468
1.04230786284418,-0.839265367219841,0.469
1.03924271005291,-0.835651130519431,0.47
1.03634804758919,-0.832231050639282,0.471
1.03359805579857,-0.82901108609528,0.472
1.03099183761931,-0.825966797989056,0.473
1.0285180987349,-0.823066007184971,0.474
1.02614980366872,-0.820289427717664,0.475
1.02389013336569,-0.817639847453475,0.476
1.02176553765919,-0.815110843744416,0.477
1.01973335275875,-0.812655076235092,0.478
1.0177702985196,-0.810224967175804,0.479
