Drag (N),Lift (N),Time (s)
-2.449,4.632,0
-2.4246629162338,4.61673894689304,0.001
-2.40036559334205,4.60149474660807,0.002
-2.37613844587852,4.58629052029096,0.003
-2.35201599913258,4.57115219731915,0.004
-2.32802192298343,4.55609541273691,0.005
-2.30417074717033,4.54115038423752,0.006
-2.28051003790597,4.52633575575399,0.007
-2.25706801853134,4.51166493951779,0.008
-2.23387291296826,4.49716128321959,0.009
-2.21094008300576,4.48284048912375,0.01
-2.18830450823116,4.46872645351276,0.011
-2.16598508404893,4.45482012852047,0.012
-2.14400873932673,4.44114779439046,0.013
-2.12239387065563,4.4277298742745,0.014
-2.10115907735042,4.41457708052014,0.015
-2.08033420833855,4.40169832843319,0.016
-2.05992702370906,4.38912258801471,0.017
-2.03995630160679,4.3768423503741,0.018
-2.02043980215709,4.36485589285194,0.019
-2.00139430734939,4.35319043336925,0.02
-1.98283040419918,4.34184049637936,0.021
-1.964752531208,4.33081224026357,0.022
-1.94717617823337,4.32011883130189,0.023
-1.93011557843258,4.30976487618496,0.024
-1.91357038522098,4.29975754001302,0.025
-1.89753878520611,4.29010177341508,0.026
-1.88203706038601,4.2807996018411,0.027
-1.86706915210277,4.27184358986153,0.028
-1.85263022827484,4.26324281842462,0.029
-1.83872339767546,4.25498767745474,0.03
-1.82534936469575,4.24709065446469,0.031
-1.81250352478983,4.23953808593384,0.032
-1.80017297467355,4.23233271084519,0.033
-1.78836056190038,4.22546985867364,0.034
-1.77705044597725,4.21895036421505,0.035
-1.76622841611887,4.21275231642258,0.036
-1.7558851125818,4.20687477631215,0.037
-1.74600755797657,4.20131175419706,0.038
-1.73658357732481,4.1960521112661,0.039
-1.72759455812276,4.19108126355251,0.04
-1.71902330531729,4.18640255145085,0.041
-1.71085456615565,4.1819901335756,0.042
-1.70306900035777,4.17783333317366,0.043
-1.69564572418809,4.17392683179395,0.044
-1.68857751409282,4.17024749290165,0.045
-1.68183845534186,4.16678053431938,0.046
-1.67540807286989,4.16352208754742,0.047
-1.66927113982839,4.16045133321695,0.048
-1.66340936252252,4.15755632847142,0.049
-1.65779587226851,4.15483456757581,0.05
-1.65241641617861,4.1522665039223,0.051
-1.64724638384932,4.14984129894066,0.052
-1.64226626543419,4.14755796043422,0.053
-1.63746421826644,4.14539604035569,0.054
-1.63281817084309,4.1433504208903,0.055
-1.62830555711745,4.14141333125824,0.056
-1.62391041172695,4.13957728752495,0.057
-1.61962307233279,4.1378354587858,0.058
-1.6154122984922,4.13618595567239,0.059
-1.611269612911,4.13461612987213,0.06
-1.60718485914544,4.1331226983976,0.061
-1.60313817534878,4.13171856359116,0.062
-1.59911262387704,4.13038543596626,0.063
-1.59510314843464,4.12912429685378,0.064
-1.59110161057887,4.12792860901568,0.065
-1.58709371737736,4.12678625254424,0.066
-1.5830591829108,4.12569369511913,0.067
-1.57899621944186,4.12465790402776,0.068
-1.57490886723701,4.12366731453709,0.069
-1.57077463734178,4.12272023069948,0.07
-1.5665864203948,4.12181324239061,0.071
-1.56234016410919,4.12094509500529,0.072
-1.55802703656087,4.12009715186738,0.073
-1.55363802243396,4.11928172005149,0.074
-1.5491688221924,4.11848630916032,0.075
-1.54462531015072,4.11770942206647,0.076
-1.53999314036883,4.11694954821862,0.077
-1.53526548454646,4.1162092890118,0.078
-1.53045214877062,4.1154816700497,0.079
-1.52555374409504,4.1147617523525,0.08
-1.52056315378127,4.11404128349496,0.081
-1.51548169417348,4.11332477244238,0.082
-1.51031050355492,4.1126120087379,0.083
-1.5050571553416,4.11190031417244,0.084
-1.49971492621252,4.1111984511424,0.085
-1.49428760916299,4.11052020704191,0.086
-1.48878700040643,4.10984926270325,0.087
-1.4832099610115,4.10919565628066,0.088
-1.47755685701094,4.10854654278579,0.089
-1.47184719871547,4.10791129084682,0.09
-1.46607632015223,4.10728750214449,0.091
-1.46026144712976,4.10668805894702,0.092
-1.4543949999593,4.10610097107889,0.093
-1.44849912185898,4.10555711504598,0.094
-1.44257759919894,4.10503590179161,0.095
-1.43664122475816,4.10455056901508,0.096
-1.43068247041828,4.10408534598326,0.097
-1.42471877188237,4.1036522320581,0.098
-1.41876268850224,4.10324696614024,0.099
-1.41282780253872,4.10288930107129,0.1
-1.40691850306542,4.10256719126243,0.101
-1.40103778800501,4.10229157821587,0.102
-1.39519896999481,4.10205519763947,0.103
-1.38941807612671,4.10185922493314,0.104
-1.38369826990575,4.1016951013973,0.105
-1.37805134315123,4.10157506795633,0.106
-1.37249933294928,4.10149437969999,0.107
-1.3670535101003,4.1014529093234,0.108
-1.36171773778987,4.10145124303521,0.109
-1.35650327882055,4.10148653656463,0.11
-1.35142138344538,4.10155033808872,0.111
-1.34647155021372,4.10164046926748,0.112
-1.34166946335792,4.10177124656148,0.113
-1.33701583908515,4.10192650962533,0.114
-1.3325036649292,4.10209176192258,0.115
-1.32813975446431,4.10226916221606,0.116
-1.32391339291955,4.10245735822328,0.117
-1.31982571105197,4.10264789614239,0.118
-1.31586708316527,4.10284210027606,0.119
-1.3120331112818,4.10305133056378,0.12
-1.30830307663451,4.10325068829809,0.121
-1.30467363976544,4.1034439652086,0.122
-1.30113714295069,4.10362301710147,0.123
-1.29767450822759,4.10377975911823,0.124
-1.29426080716211,4.10391246196934,0.125
-1.29087956582297,4.10401601561908,0.126
-1.2875297627601,4.10407714906176,0.127
-1.28418408782129,4.10409696184494,0.128
-1.28081223918846,4.10406890455221,0.129
-1.27739978534139,4.10397945128928,0.13
-1.27392439069392,4.10382378672996,0.131
-1.27035308889051,4.10359291395471,0.132
-1.26666620455423,4.10329315319794,0.133
-1.26284490700326,4.10290156428059,0.134
-1.25885715705423,4.10242507602633,0.135
-1.25467894923714,4.10185109578011,0.136
-1.25029088663752,4.1011786303131,0.137
-1.24567081452516,4.10040285031267,0.138
-1.24079418394426,4.09951865663201,0.139
-1.23564133758062,4.09853153152909,0.14
-1.23019739201039,4.09744852007182,0.141
-1.22444866014491,4.09626225040055,0.142
-1.21837900649753,4.09498150479939,0.143
-1.21197790569269,4.0936109721911,0.144
-1.20523628637199,4.09214442374191,0.145
-1.19814663902521,4.09059745910352,0.146
-1.19070556658986,4.08897767424209,0.147
-1.18290298156303,4.08728357512643,0.148
-1.17473827108973,4.08553985270287,0.149
-1.16621510886706,4.0837512416844,0.15
-1.15733537460868,4.08192822069761,0.151
-1.14809923968217,4.08007490783622,0.152
-1.13851392489429,4.07820294932251,0.153
-1.12858624742011,4.07631706911603,0.154
-1.11831340347904,4.07442948202335,0.155
-1.10770319555633,4.07255105892026,0.156
-1.0967639211212,4.07068781346476,0.157
-1.08550367741689,4.06884929617354,0.158
-1.07392088915331,4.06703867691887,0.159
-1.06203257116548,4.06526394511884,0.16
-1.04984060356067,4.06353158298328,0.161
-1.03734972466968,4.06184596993739,0.162
-1.02456864932245,4.06020525712944,0.163
-1.01152177396132,4.05861181045509,0.164
-0.998213819467238,4.05707257150535,0.165
-0.984651137390444,4.05559516815027,0.166
-0.970854844064762,4.05419781869131,0.167
-0.956846834054942,4.0528801310833,0.168
-0.942648600962635,4.05165368075338,0.169
-0.928266328335304,4.05052033319494,0.17
-0.913730790799574,4.04948726793948,0.171
-0.899065242758297,4.0485547121992,0.172
-0.884289682513744,4.04773340692726,0.173
-0.869422897250186,4.04703705010395,0.174
-0.854489550540492,4.04645986104855,0.175
-0.83951710198331,4.04601288861412,0.176
-0.824512700291332,4.04570300807548,0.177
-0.809506445367285,4.04552850182725,0.178
-0.794514393845687,4.04549050496321,0.179
-0.779553463339561,4.04559205650969,0.18
-0.764647533073517,4.04584704315531,0.181
-0.74981235108558,4.04625774268177,0.182
-0.735070541676767,4.04681463426369,0.183
-0.720442385279024,4.04751959514955,0.184
-0.705951253908195,4.04837934929763,0.185
-0.691623291608134,4.04937790220274,0.186
-0.677478474359521,4.05051247504055,0.187
-0.663537882673432,4.05179708303634,0.188
-0.649825828405304,4.05321286174154,0.189
-0.636360743234521,4.05477427402046,0.19
-0.623150814290084,4.05645613049699,0.191
-0.610219079205745,4.05826101010396,0.192
-0.597560524811481,4.06016362628404,0.193
-0.585188212574484,4.0621722794963,0.194
-0.573111464294895,4.06424918843949,0.195
-0.561333621929461,4.06640094805388,0.196
-0.549855392008242,4.06860840105502,0.197
-0.538687867377569,4.07089136415313,0.198
-0.527834644930818,4.07321237421802,0.199
-0.51729289143861,4.07555733628746,0.2
-0.507059526447144,4.07789433943801,0.201
-0.497145064337516,4.08022068585419,0.202
-0.487549344825126,4.0825140939289,0.203
-0.4782606643641,4.08477517295701,0.204
-0.469269125335872,4.08698571848152,0.205
-0.460581606604875,4.08913632508771,0.206
-0.452197401384311,4.09120107988696,0.207
-0.444093927033405,4.09315788641308,0.208
-0.436246130190509,4.09499597180021,0.209
-0.428658121189643,4.09670133278858,0.21
-0.421314401516899,4.09827510500975,0.211
-0.414193903801258,4.09970411363336,0.212
-0.407289812211503,4.1009693329202,0.213
-0.400579162846417,4.10205005238982,0.214
-0.394055825146902,4.10295024563788,0.215
-0.387726154925541,4.10366423626714,0.216
-0.38157030891711,4.10418976651072,0.217
-0.37559078871927,4.10452310864972,0.218
-0.369786294951676,4.10465168247243,0.219
-0.364162995415418,4.10458686989973,0.22
-0.358724530409166,4.10430483014045,0.221
-0.353486797230037,4.10382027279096,0.222
-0.348442518780251,4.10313778613418,0.223
-0.343601993382465,4.10226433211632,0.224
-0.338978951923344,4.10120694699917,0.225
-0.334606642659607,4.09996977825052,0.226
-0.330495871608733,4.0985606332082,0.227
-0.32664593888795,4.09698796283475,0.228
-0.323079230806199,4.09525079087378,0.229
-0.319825453220941,4.09338027340671,0.23
-0.316895537665493,4.09140333820081,0.231
-0.31430340433703,4.08932881124158,0.232
-0.312084873987561,4.08717359230619,0.233
-0.310255811392406,4.08494998314007,0.234
-0.308834232827431,4.08269472370776,0.235
-0.307852268055229,4.08039853626815,0.236
-0.307335126607929,4.07810041002209,0.237
-0.30729578992415,4.07582497912783,0.238
-0.30775151707316,4.07358839469332,0.239
-0.30872307175374,4.07140428014319,0.24
-0.310221134516712,4.06929078319809,0.241
-0.312253528611937,4.06725253475602,0.242
-0.314810544568026,4.06531172835127,0.243
-0.317897085124033,4.06347240834042,0.244
-0.321507250294935,4.06174878091113,0.245
-0.325632600805671,4.06016727381807,0.246
-0.330242394613464,4.05872973298454,0.247
-0.335316049194946,4.05744326163759,0.248
-0.340846547023613,4.05632055094915,0.249
-0.346809157987257,4.05536076963757,0.25
-0.353158883925481,4.05456407911608,0.251
-0.359873090587532,4.0539217760397,0.252
-0.366914449632143,4.05345403480198,0.253
-0.374255377144709,4.0531631778334,0.254
-0.381853904890364,4.05305241547953,0.255
-0.389682570224369,4.05312693953312,0.256
-0.397710154462601,4.05338391768477,0.257
-0.405903713172125,4.05382357493227,0.258
-0.414230247640355,4.05444833613686,0.259
-0.422660835735904,4.05526822324693,0.26
-0.431172496973832,4.05628365106713,0.261
-0.439737956018727,4.05751803225745,0.262
-0.448328324616083,4.05897442606765,0.263
-0.456925892644662,4.0606559537557,0.264
-0.46550119551175,4.06258534319083,0.265
-0.474038281657405,4.0647632624799,0.266
-0.482513991862181,4.06719027544516,0.267
-0.490902313049275,4.0698625098039,0.268
-0.499191297568815,4.0727890283812,0.269
-0.507342099270876,4.07596486791947,0.27
-0.515339334799932,4.07939840161302,0.271
-0.523160326916636,4.08309041200669,0.272
-0.53078720522133,4.08704931761886,0.273
-0.538201520268683,4.09126548019993,0.274
-0.545400348698822,4.09573525796876,0.275
-0.552374762129742,4.10045744929061,0.276
-0.559104214342892,4.10542502887851,0.277
-0.565591847928181,4.11064015321864,0.278
-0.571817635710117,4.11609849803916,0.279
-0.577792424519079,4.12179968652535,0.28
-0.583512942797346,4.12774515565889,0.281
-0.588969823004443,4.13390844284599,0.282
-0.594169375825182,4.14028800871941,0.283
-0.59911502238209,4.14688932615929,0.284
-0.603811938912902,4.1537190354209,0.285
-0.608252486217147,4.16075499171985,0.286
-0.612444454173202,4.16799676924627,0.287
-0.616398976637509,4.17543479943102,0.288
-0.620111148428856,4.18305426831251,0.289
-0.623575322585195,4.19085999140359,0.29
-0.626815757331152,4.19883944506643,0.291
-0.629846212979519,4.20700685228999,0.292
-0.632686348077817,4.21534414287901,0.293
-0.635370616921333,4.22387156616385,0.294
-0.63793763834924,4.23257660635762,0.295
-0.640404839312708,4.24146808747139,0.296
-0.642815238643459,4.25054879901661,0.297
-0.64521827008907,4.25981411940162,0.298
-0.647655992444712,4.26925517985098,0.299
-0.650157850464992,4.27889520882051,0.3
-0.652776059833133,4.28873377433324,0.301
-0.655554575053906,4.29876911742907,0.302
-0.658539478136069,4.30900247013785,0.303
-0.661762645181625,4.31944801422708,0.304
-0.665262644852568,4.33009591641415,0.305
-0.669081728650735,4.34095435669978,0.306
-0.673251355381973,4.35201184198333,0.307
-0.677800887527217,4.36328192059353,0.308
-0.682763853456966,4.37477559627624,0.309
-0.688176432123451,4.38647629042958,0.31
-0.694058349210763,4.39839732916142,0.311
-0.700431761555608,4.41052571221417,0.312
-0.707319595109251,4.4228606139398,0.313
-0.714743023435629,4.43539619960219,0.314
-0.722734930923434,4.44814031149562,0.315
-0.73129780037078,4.46108253948047,0.316
-0.74041549666983,4.47422096383834,0.317
-0.750109003176035,4.48752875226838,0.318
-0.760385133002273,4.50100847446121,0.319
-0.771236182028716,4.51464259735518,0.32
-0.782627694060799,4.52839733688497,0.321
-0.794557992222219,4.54228799591863,0.322
-0.807003609052594,4.55628652430333,0.323
-0.81993771199447,4.57037584367555,0.324
-0.83333112257125,4.58454511811319,0.325
-0.847165119086602,4.59877264008231,0.326
-0.861369538405724,4.61303324866225,0.327
-0.875916214058939,4.62730920687033,0.328
-0.890769089443028,4.64159179333271,0.329
-0.905872838287394,4.65586796032184,0.33
-0.921166527732561,4.67008503284133,0.331
-0.936608973693279,4.68421303833043,0.332
-0.952132983773773,4.69824559517766,0.333
-0.967676315400938,4.71214608971803,0.334
-0.983172317762115,4.72588745444235,0.335
-0.998557091088696,4.73944170991197,0.336
-1.01375721842491,4.75279855804317,0.337
-1.02870859057496,4.76592713805119,0.338
-1.04333712593344,4.77879598201833,0.339
-1.05758006067565,4.79137894654933,0.34
-1.07138378662929,4.80367533111935,0.341
-1.08469074421467,4.81565943972029,0.342
-1.09743312340751,4.82731227067346,0.343
-1.1095874829258,4.83861536243337,0.344
-1.12111092705432,4.84958296070181,0.345
-1.13196581803489,4.86019057353362,0.346
-1.14211821960612,4.87041546787357,0.347
-1.15156557771135,4.88026608110892,0.348
-1.16030441632182,4.88974197797295,0.349
-1.16831677580708,4.89883908865523,0.35
-1.17558084749121,4.90755449086806,0.351
-1.18211744598999,4.91590043142791,0.352
-1.18793331563242,4.92389376940192,0.353
-1.19304486211308,4.93153721997476,0.354
-1.19745822543833,4.93883496556518,0.355
-1.20119648925008,4.94579131697128,0.356
-1.20427687754231,4.95242035401039,0.357
-1.2067255091143,4.95874089202859,0.358
-1.20856927332651,4.96476999278076,0.359
-1.20983716813103,4.97050960072923,0.36
-1.21056834159237,4.97597342340701,0.361
-1.21078278389104,4.9811740231687,0.362
-1.21051866539551,4.98611299859293,0.363
-1.20982136448814,4.99080195805407,0.364
-1.20871957114022,4.99524882769807,0.365
-1.20724565715672,4.99945176649855,0.366
-1.20543401871906,5.00341714119633,0.367
-1.2033385951078,5.00716073823652,0.368
-1.2009881032682,5.01069055528911,0.369
-1.19840739245165,5.01400468560099,0.37
-1.19565526632405,5.01710999589318,0.371
-1.19277196974785,5.02002165434189,0.372
-1.18979340005304,5.02273830099652,0.373
-1.18676148327546,5.02526135143014,0.374
-1.18371003207664,5.02761997964371,0.375
-1.18066492346818,5.02981549228787,0.376
-1.17765656147114,5.03185256673202,0.377
-1.1747268715319,5.0337546119297,0.378
-1.17190206833195,5.03552226660129,0.379
-1.16922373642489,5.03716869833257,0.38
-1.16672417589591,5.03870384908517,0.381
-1.16443648554864,5.04013401064719,0.382
-1.16239148474051,5.04147859733567,0.383
-1.16062424691967,5.04274020596048,0.384
-1.15915936148182,5.04393886087539,0.385
-1.15802899960102,5.04505845911349,0.386
-1.15727053857702,5.04611187729802,0.387
-1.15690117681867,5.04712770655483,0.388
-1.15693174258158,5.04811759512571,0.389
-1.15740013907688,5.04908095584401,0.39
-1.15834636441865,5.05002196376812,0.391
-1.15977100720256,5.05095023802471,0.392
-1.16169022608939,5.05186712189531,0.393
-1.16410717886412,5.05278615375486,0.394
-1.16702445312997,5.05369484077303,0.395
-1.17043775431298,5.05459232481295,0.396
-1.17434892364661,5.0554798002668,0.397
-1.17875378022454,5.05635628697484,0.398
-1.18363416705072,5.05722259225631,0.399
-1.18896044740283,5.05806263240044,0.4
-1.1947427148111,5.0588537728863,0.401
-1.20095789025652,5.0596062933131,0.402
-1.20758306297862,5.06031576713912,0.403
-1.21457413091905,5.06098340616809,0.404
-1.22191523019785,5.06157640773769,0.405
-1.22959205780922,5.06209253636913,0.406
-1.23758001538692,5.06252417863598,0.407
-1.24583870286483,5.06287816283272,0.408
-1.25432874003934,5.06313429389122,0.409
-1.26304134048708,5.0632764018017,0.41
-1.2719541690851,5.06332101504247,0.411
-1.28102719473017,5.06324048986757,0.412
-1.29023791453003,5.06302657208682,0.413
-1.29958258190504,5.06266679447779,0.414
-1.30903316110361,5.06217193167415,0.415
-1.31853005565753,5.06152966239964,0.416
-1.32806283454674,5.06072901502964,0.417
-1.33764187058659,5.05976523920526,0.418
-1.34723489401959,5.05866396446735,0.419
-1.35679383711719,5.05739589085559,0.42
-1.36630042444775,5.05598416385826,0.421
-1.37577543024069,5.05444034621636,0.422
-1.38516849888069,5.05274991596469,0.423
-1.39445867696269,5.05092491829595,0.424
-1.40364254774076,5.04896342166073,0.425
-1.41270761590853,5.04685397599414,0.426
-1.42162200771049,5.04459634673263,0.427
-1.43039603413576,5.04220548279369,0.428
-1.43899986728168,5.039674610112,0.429
-1.44741934522325,5.03698779486194,0.43
-1.45565612867623,5.03415206600767,0.431
-1.46370577835002,5.0311957684384,0.432
-1.47154360959852,5.02810598410114,0.433
-1.47919697086475,5.02488330354944,0.434
-1.48665200657602,5.02155453484684,0.435
-1.4939132030205,5.01811115012121,0.436
-1.5009960993837,5.01455441889195,0.437
-1.50790555240886,5.01090155301291,0.438
-1.51464343688736,5.00714878713265,0.439
-1.52123274094704,5.00330449236652,0.44
-1.52769280130696,4.99938950059555,0.441
-1.5340218725159,4.99539966286249,0.442
-1.5402322592269,4.99134192196123,0.443
-1.54635181607047,4.98724037779757,0.444
-1.55236786338742,4.98310158799527,0.445
-1.55829385330796,4.97891206025048,0.446
-1.56414176624992,4.97469112165954,0.447
-1.5699216792414,4.97045024702322,0.448
-1.57562383566992,4.9661812035891,0.449
-1.58123777893852,4.96189392409438,0.45
-1.58676597952315,4.95758487680817,0.451
-1.59222961987867,4.9532518215971,0.452
-1.59762419702721,4.9488891839293,0.453
-1.60293109770676,4.94449587058071,0.454
-1.60814254156664,4.94005977150592,0.455
-1.61326393285437,4.93558707233158,0.456
-1.61829005712549,4.93107980391663,0.457
-1.62322337545513,4.92652792772896,0.458
-1.62805272279822,4.92191576155229,0.459
-1.63277434414343,4.91723470798724,0.46
-1.63738686384182,4.9124989919816,0.461
-1.64187737305252,4.9076912990823,0.462
-1.64624809992055,4.90281632708513,0.463
-1.65048662654657,4.89785218724885,0.464
-1.65458282791579,4.89279399396201,0.465
-1.65853706265295,4.88764057463699,0.466
-1.6623457085549,4.88239228527081,0.467
-1.66600313393385,4.87705905491878,0.468
-1.66947572627259,4.87163286490361,0.469
-1.67278110066569,4.86611300252228,0.47
-1.67592315232668,4.86051248782005,0.471
-1.67888665816715,4.8548308263388,0.472
-1.68166840699107,4.84906386943297,0.473
-1.68426363933635,4.84322193946431,0.474
