Drag (N),Lift (N),Time (s)
2.1,-0.974999999999999,0
2.03575131701658,-0.912328750433277,0.001
1.97163735713653,-0.849761100894238,0.002
1.90782821759125,-0.787443843339251,0.003
1.84447654698479,-0.725467447867328,0.004
1.78171864729311,-0.663957551189122,0.005
1.71968244114609,-0.603020699894549,0.006
1.65852576273375,-0.542779378272324,0.007
1.59838388542839,-0.483328143674107,0.008
1.53940544752474,-0.424773988988224,0.009
1.48170894155006,-0.367220944474505,0.01
1.42542266965519,-0.310781128222497,0.011
1.37066572596165,-0.255549296454358,0.012
1.31756611410306,-0.201617697861275,0.013
1.26621146036845,-0.149075086702586,0.014
1.21669938766895,-0.0979969365020726,0.015
1.16914175578778,-0.04847224336582,0.016
1.12364028120388,-0.000568678582226521,0.017
1.08024235041565,0.0456713378450412,0.018
1.03903481729494,0.0901757323620234,0.019
1.00008023958883,0.132890417247339,0.02
0.963427321336881,0.17377664731581,0.021
0.929101850185451,0.212807398043558,0.022
0.897128314873125,0.249960499393594,0.023
0.86752490024716,0.285208767381557,0.024
0.840292175904713,0.318540014893035,0.025
0.815425683507333,0.349958995164468,0.026
0.792911206470072,0.379484700623337,0.027
0.772711228737741,0.407127515938464,0.028
0.754781556924059,0.432913534949603,0.029
0.739056492551928,0.456864015214406,0.03
0.725496368151006,0.479032336987024,0.031
0.714016700664494,0.499477634391273,0.032
0.704547017064363,0.518238701814775,0.033
0.696989605811822,0.535359405106056,0.034
0.691258156762115,0.550900960831157,0.035
0.687269798042974,0.564947288952581,0.036
0.684928564107637,0.577549203376985,0.037
0.6841139610135,0.588791869839211,0.038
0.684729889751281,0.598736742803038,0.039
0.686676278740368,0.607476204550641,0.04
0.689847902229471,0.615071741184818,0.041
0.694126585361456,0.621604941999979,0.042
0.699392531529873,0.627140646457091,0.043
0.705551120333081,0.631761244154371,0.044
0.712487210946745,0.635540580046906,0.045
0.720076112062403,0.63854741328614,0.046
0.728205300109849,0.640845848473142,0.047
0.736770241451109,0.64251682064076,0.048
0.745678435558604,0.643626346288032,0.049
0.75481175577087,0.644237427361138,0.05
0.764078475845036,0.644430688436928,0.051
0.773394125812966,0.644266774324655,0.052
0.782653795435256,0.643791143110453,0.053
0.791774159053555,0.643065101069267,0.054
0.800678415550919,0.642149059236747,0.055
0.809287984288203,0.641089273662854,0.056
0.817525855526874,0.63993846909752,0.057
0.825335906058226,0.638745339377198,0.058
0.832668194873352,0.637549316850702,0.059
0.839460564266498,0.636391150848033,0.06
0.845659290792506,0.635316415425029,0.061
0.851217397726591,0.634353394450583,0.062
0.856095209643686,0.633541784011186,0.063
0.860256043079774,0.632885585497685,0.064
0.863659299537287,0.632433802576754,0.065
0.866292410002938,0.632195058114314,0.066
0.868134993589686,0.63219066696566,0.067
0.869163263305699,0.632416630605471,0.068
0.869365818051169,0.632880977694098,0.069
0.868754903422416,0.633605218682776,0.07
0.867336624676542,0.63459364776934,0.071
0.865137140355096,0.635821110985096,0.072
0.862146797143783,0.637268781618422,0.073
0.858400939399671,0.638934252067926,0.074
0.853927816802419,0.640806282916614,0.075
0.848764597642542,0.642882214315848,0.076
0.842935297139184,0.645133489250439,0.077
0.83646855419256,0.647520685402933,0.078
0.82940540940249,0.650015026814768,0.079
0.821777218650201,0.652602313786881,0.08
0.813628531605728,0.655266348373827,0.081
0.805012004369686,0.657966491356389,0.082
0.795947865554267,0.660661893950922,0.083
0.786473681780293,0.663331125617788,0.084
0.776619083514699,0.66598312490479,0.085
0.766445175788243,0.668582475990131,0.086
0.755973202639352,0.671085198709774,0.087
0.745202394585634,0.673475319442938,0.088
0.734176638615974,0.675735629763074,0.089
0.722953962270011,0.677868248225807,0.09
0.711549124843656,0.67984698001009,0.091
0.699979093997677,0.681649827747994,0.092
0.688265257360469,0.683287872245246,0.093
0.676454190402396,0.684753937916202,0.094
0.66456864359284,0.68604302778352,0.095
0.652607142070292,0.687132957726928,0.096
0.64058549127111,0.68803861858524,0.097
0.628547461870335,0.688748899023708,0.098
0.616505211027968,0.689264296968506,0.099
0.604462947994304,0.689569974744606,0.1
0.592428883775974,0.689681585300898,0.101
0.580441477779835,0.689606021690334,0.102
0.568513671968187,0.689318643711216,0.103
0.556628633643943,0.688844729715237,0.104
0.544799151469103,0.688174326627893,0.105
0.533050875377732,0.68731706096556,0.106
0.521384969578248,0.686262627533726,0.107
0.509785830611507,0.685024369587494,0.108
0.498284262313999,0.683591365422571,0.109
0.486865094670994,0.681973506837462,0.11
0.475526886737673,0.680171583635773,0.111
0.464272417158545,0.678200983127003,0.112
0.453108905521662,0.676070897269784,0.113
0.442016488802752,0.673801861446817,0.114
0.430999262103789,0.671399972255009,0.115
0.420056733247079,0.668870953089073,0.116
0.409172457144536,0.666237562590404,0.117
0.398318065174298,0.663527920153324,0.118
0.387506061169539,0.66073768966821,0.119
0.376713734064215,0.657888875092198,0.12
0.365924169058269,0.654995022807177,0.121
0.355124998432422,0.652078354754325,0.122
0.344305291545697,0.649158247862958,0.123
0.333455255668673,0.646236424536636,0.124
0.322560935134748,0.643342984319771,0.125
0.311608439984673,0.640493452026205,0.126
0.300575826890576,0.637697735838598,0.127
0.289459222731754,0.634962221665611,0.128
0.27825195107572,0.632311672405943,0.129
0.266948553239689,0.629743843101951,0.13
0.255550031212985,0.627266481065525,0.131
0.244042761636988,0.624884623606869,0.132
0.23243676908609,0.62258885607426,0.133
0.220730613813437,0.620390139324569,0.134
0.208932431286829,0.618289293160741,0.135
0.19705314674581,0.616288978292294,0.136
0.185090604775047,0.614366443213471,0.137
0.173047609614188,0.612526785447784,0.138
0.160952623185184,0.610757477522272,0.139
0.148818798695143,0.609046415254257,0.14
0.136644390217987,0.607379312106537,0.141
0.124435333779067,0.605753294095836,0.142
0.112217512233408,0.604144810533129,0.143
0.100013278761758,0.602558166091323,0.144
0.0878262850737532,0.600964644176964,0.145
0.0756651885650118,0.599359795763085,0.146
0.0635478735178785,0.597737630346777,0.147
0.0514982755760433,0.596095911771428,0.148
0.0395326405308798,0.594411466746115,0.149
0.0276416002063927,0.59267722639519,0.15
0.0158420964630593,0.590899113670092,0.151
0.00415377367385064,0.589058182279249,0.152
-0.00742107883127913,0.587151576508252,0.153
-0.0188748161534862,0.585185238227463,0.154
-0.0301861299873654,0.583146997009686,0.155
-0.0413577376418351,0.581021054770543,0.156
-0.0523824686444839,0.578812407907343,0.157
-0.0632433805594845,0.576524758896603,0.158
-0.073929039404581,0.574154818141644,0.159
-0.0844441843413649,0.571706597654979,0.16
-0.0947906401691993,0.569171269838236,0.161
-0.104953906335221,0.566542991776779,0.162
-0.114923107538617,0.563825932652259,0.163
-0.124702737778404,0.561018604768522,0.164
-0.134284052976638,0.558136832556699,0.165
-0.143655664556057,0.555158581740067,0.166
-0.152823985434287,0.552090332900589,0.167
-0.161785797300093,0.548930010556407,0.168
-0.170532303699432,0.545695534088845,0.169
-0.179053165675793,0.542386257531497,0.17
-0.187358124328825,0.538990156937021,0.171
-0.195454514377982,0.535510244302366,0.172
-0.203340190253883,0.531968790015351,0.173
-0.211007810781092,0.52837044951512,0.174
-0.218466621743519,0.524722318646897,0.175
-0.225721132287388,0.521027843657266,0.176
-0.232778312990844,0.517287771716343,0.177
-0.239643923425867,0.513501938614275,0.178
-0.246324582394192,0.509700108348301,0.179
-0.252830522284075,0.505908481777986,0.18
-0.259156821783756,0.502132568746378,0.181
-0.265325580822914,0.498382883292075,0.182
-0.271362296433208,0.494682768182064,0.183
-0.277252433788577,0.49106797132926,0.184
-0.283006943299425,0.487557590471012,0.185
-0.288647305009,0.484152623924912,0.186
-0.294213207048155,0.480885919806077,0.187
-0.299691191863359,0.477794438413443,0.188
-0.305072538450153,0.474897196465529,0.189
-0.310379257961253,0.472211514923259,0.19
-0.315645773056378,0.469750968218631,0.191
-0.320861994891097,0.467534656723639,0.192
-0.326037340059453,0.465592009935739,0.193
-0.331183143033316,0.463926141102215,0.194
-0.336308497804567,0.462552836908647,0.195
-0.341424306163239,0.461479504508428,0.196
-0.346527648674229,0.460738344037864,0.197
-0.351625059568712,0.460319168525402,0.198
-0.356736838751237,0.460243827374082,0.199
-0.361857513463652,0.460524408444044,0.2
-0.366989796455642,0.461173608348642,0.201
-0.372142167383746,0.462206700012057,0.202
-0.377326497334423,0.463624335853422,0.203
-0.382547639161584,0.465453571321533,0.204
-0.38780178117425,0.467681215566505,0.205
-0.393094105538305,0.470313858642279,0.206
-0.398442328144268,0.473352277190526,0.207
-0.40383767878242,0.476815109444486,0.208
-0.409270004699057,0.480696978220776,0.209
-0.414761852057973,0.485007853910208,0.21
-0.420306770057672,0.489753443672392,0.211
-0.425909869645708,0.494936394387072,0.212
-0.431572982192908,0.500552708357121,0.213
-0.437298378444466,0.506596451256471,0.214
-0.443087115184438,0.513062861531504,0.215
-0.448947349344151,0.519940977049445,0.216
-0.454884079887025,0.527223115497534,0.217
-0.460887659877625,0.534901400338622,0.218
-0.466954977702843,0.542958002290166,0.219
-0.473097328950105,0.551394574280185,0.22
-0.479309338734005,0.560187544216463,0.221
-0.485596864457787,0.569329558663122,0.222
-0.491951122821085,0.578802594866945,0.223
-0.498373428257116,0.588586857393282,0.224
-0.504863751327205,0.598672310726048,0.225
-0.511428195054735,0.609029031425034,0.226
-0.518057325840029,0.619635330541934,0.227
-0.524739763178,0.630476827005378,0.228
-0.531478966112719,0.641533183684068,0.229
-0.538266569883933,0.652764720515276,0.23
-0.545100764312774,0.664149878112024,0.231
-0.551979787209487,0.675657390513543,0.232
-0.558885602030032,0.687253365699735,0.233
-0.565821978621624,0.698913263064867,0.234
-0.572780696025351,0.710596054574735,0.235
-0.579753510910259,0.722276618157562,0.236
-0.586742389161346,0.733920753911468,0.237
-0.593730847013161,0.74549627902058,0.238
-0.600702478767701,0.7569751341141,0.239
-0.607659794001541,0.768315175991845,0.24
-0.614603584335715,0.779484346193029,0.241
-0.621522148852601,0.790445996026363,0.242
-0.628400038619582,0.801166373788662,0.243
-0.635238639933654,0.811626129366624,0.244
-0.642042608759655,0.821775797537645,0.245
-0.648794513147555,0.831609008988974,0.246
-0.655487648835812,0.841085801136647,0.247
-0.662115096522359,0.850180284281678,0.248
-0.668677997908666,0.858857549113278,0.249
-0.675172097960785,0.867101998719964,0.25
-0.681584126192419,0.874881989189464,0.251
-0.687891710877035,0.882157000177654,0.252
-0.694096072444777,0.888908840238924,0.253
-0.700197634775702,0.895109790939156,0.254
-0.706171939562156,0.900738704904565,0.255
-0.71202532856422,0.905785225656244,0.256
-0.717740123538468,0.910234724852309,0.257
-0.723312147325919,0.914073733991307,0.258
-0.728743300596521,0.917282530808177,0.259
-0.734034342597776,0.919849408262561,0.26
-0.739169484869745,0.921752690752656,0.261
-0.744150739167269,0.923007851615424,0.262
-0.748973209897368,0.923603678062576,0.263
-0.753633095229922,0.923537782069783,0.264
-0.758129223651525,0.92280914590718,0.265
-0.762458099579915,0.921413012463365,0.266
-0.766615766971865,0.919366739081691,0.267
-0.770587392048059,0.916663705946252,0.268
-0.774371431179494,0.913323381785411,0.269
-0.777959523234511,0.909339853627543,0.27
-0.781358653824593,0.904724906829666,0.271
-0.784560699042052,0.899489996959098,0.272
-0.787550991936898,0.893659542448136,0.273
-0.790341091130476,0.887239723020246,0.274
-0.79292447703324,0.880254507002556,0.275
-0.795296826027955,0.872719198903458,0.276
-0.797461809823559,0.86467347056151,0.277
-0.799425438093292,0.856124388212668,0.278
-0.801178671467093,0.847119611615285,0.279
-0.802718295479701,0.837686673702751,0.28
-0.804054403055304,0.827848448047954,0.281
-0.805205840012127,0.817640245332011,0.282
-0.806166642086213,0.807093807522122,0.283
-0.80692715716173,0.796250838479496,0.284
-0.807508382819633,0.785131818433712,0.285
-0.807914041914294,0.7737809055199,0.286
-0.808145187292399,0.762236719824235,0.287
-0.8081788123747,0.750520064709282,0.288
-0.808035360731917,0.738661093094111,0.289
-0.807719043276623,0.726705366196164,0.29
-0.807238388598136,0.714683618444334,0.291
-0.806579780797056,0.702631874862657,0.292
-0.80575808299352,0.690579176216924,0.293
-0.80477621679778,0.678558891851196,0.294
-0.803636126607895,0.66660791315231,0.295
-0.802356925836462,0.65476447724875,0.296
-0.800940932822272,0.643064747387697,0.297
-0.799397373470995,0.631536516336873,0.298
-0.797737929138606,0.62022199188981,0.299
-0.795971195084244,0.609146317872216,0.3
-0.794108922432276,0.598337287034864,0.301
-0.792158035401734,0.587827597848419,0.302
-0.790120611208751,0.57762442171901,0.303
-0.788017551394771,0.56776297293463,0.304
-0.785858919664139,0.55825196390262,0.305
-0.78365449496747,0.549131746811504,0.306
-0.781414578059626,0.540423774114463,0.307
-0.779146326970267,0.532161179942263,0.308
-0.776867530843275,0.524356785918349,0.309
-0.774590521016344,0.517025649121238,0.31
-0.772320522656728,0.510188358845934,0.311
-0.770072957223053,0.503844610210688,0.312
-0.767853590308694,0.498007398654392,0.313
-0.765671289032517,0.492686185693183,0.314
-0.763541303160572,0.487893861269936,0.315
-0.76146229849662,0.483629374721511,0.316
-0.759440764727862,0.479901498198333,0.317
-0.757481502029397,0.476719589589203,0.318
-0.755605390681601,0.474077234215268,0.319
-0.753813367348412,0.471972233577844,0.32
-0.752112798123086,0.470397025898233,0.321
-0.750514017989813,0.469352507591553,0.322
-0.749014439623743,0.468823685883625,0.323
-0.747624207981183,0.468797719086721,0.324
-0.74634443476924,0.469265665187653,0.325
-0.745178576729302,0.470213222401926,0.326
-0.744124426839647,0.471625777660873,0.327
-0.743192889580059,0.473491132090879,0.328
-0.742382412225242,0.47577795226553,0.329
-0.741690658729611,0.478471871752032,0.33
-0.741124439250942,0.481556260158724,0.331
-0.740685518891612,0.485003437360014,0.332
-0.740360681842595,0.488804036608654,0.333
-0.740153023716508,0.492934112965639,0.334
-0.740057591255914,0.497365990253877,0.335
-0.740081659129561,0.502096992949847,0.336
-0.740211638978165,0.507090440344617,0.337
-0.740436593888359,0.512311801854979,0.338
-0.740756168152717,0.517747156364458,0.339
-0.741176579541773,0.523361337780525,0.34
-0.741688609942175,0.529142742041845,0.341
-0.742273588922548,0.535062298298935,0.342
-0.742928585607705,0.541098575507442,0.343
-0.743651325013353,0.547228843749971,0.344
-0.744426243377275,0.553423130303155,0.345
-0.745233346759375,0.559665271064037,0.346
-0.74607760917117,0.565912574176132,0.347
-0.746942574528148,0.572153944080194,0.348
-0.747820135869837,0.578364096756159,0.349
-0.748695776079523,0.584535121832176,0.35
-0.749562599376442,0.59062942249976,0.351
-0.750409295117504,0.596640386327986,0.352
-0.751237598096867,0.602556037535647,0.353
-0.75203895836766,0.608356824033519,0.354
-0.7527965190722,0.614027505422288,0.355
-0.753510989259214,0.619552259543772,0.356
-0.754169968184532,0.624914547286341,0.357
-0.754771369638661,0.630112000618729,0.358
-0.755296786584359,0.635120036490583,0.359
-0.75574113111287,0.639931083642547,0.36
-0.7560933387084,0.644538155998022,0.361
-0.756353451481607,0.648941341851096,0.362
-0.75649518723297,0.653102017256909,0.363
-0.756516350652771,0.657030477828401,0.364
-0.756419726251057,0.660721023846652,0.365
-0.756177472598287,0.664162682797736,0.366
-0.755783030978646,0.667355036047706,0.367
-0.755241519777573,0.670289057448431,0.368
-0.75455364864489,0.672969272047149,0.369
-0.753705441625459,0.675379036285113,0.37
-0.752704417831965,0.677533529103632,0.371
-0.751540673901281,0.679425416952216,0.372
-0.750208800870241,0.681073199607622,0.373
-0.748720749908037,0.682473372767885,0.374
-0.747066809028942,0.683631546467108,0.375
-0.745250337125832,0.684553055676446,0.376
-0.743280860245413,0.68524993074882,0.377
-0.741155033569958,0.685715675554304,0.378
-0.738869439306778,0.685976646228072,0.379
-0.736438083746515,0.686034650190286,0.38
-0.733868895550889,0.68589141049998,0.381
-0.731158822381259,0.685559827588368,0.382
-0.728303455531321,0.685056651630656,0.383
-0.725310269212363,0.684393054314353,0.384
-0.722189300211716,0.683574911017842,0.385
-0.718941046802175,0.682630507996334,0.386
-0.715572679441796,0.681554569676137,0.387
-0.712086244658743,0.680356244564522,0.388
-0.708500772588532,0.679059885226478,0.389
-0.704825928461933,0.677679047814896,0.39
-0.701069610353761,0.676216206865605,0.391
-0.697238873269934,0.674697016681411,0.392
-0.693357420996914,0.673120711242833,0.393
-0.689436238451922,0.671523802951029,0.394
-0.685476715768967,0.669916766196065,0.395
-0.681498695077677,0.668312169736013,0.396
-0.67750647624868,0.666712927895519,0.397
-0.673522183948046,0.665139720413065,0.398
-0.669549696806553,0.663592274544247,0.399
-0.665596716694219,0.662083158519813,0.4
-0.661668323646448,0.660631181229369,0.401
-0.65777715024206,0.659250596799176,0.402
-0.653930696202718,0.657938881511705,0.403
-0.650143242566275,0.656723579858012,0.404
-0.646412371554944,0.65559761062606,0.405
-0.642745209070253,0.654576708832859,0.406
-0.639139030875282,0.653660611870413,0.407
-0.635596364460302,0.652850834772576,0.408
-0.632117925320728,0.652135059147347,0.409
-0.628698852634597,0.651515299752268,0.41
-0.625348967617303,0.650996297597741,0.411
-0.622061963327539,0.650575338923859,0.412
-0.618835621462757,0.650253790255396,0.413
-0.615667986388576,0.65003513286435,0.414
-0.612565604337783,0.649910767294453,0.415
-0.609519103590308,0.649868238348149,0.416
-0.606536263751388,0.649906535267795,0.417
-0.603609525327709,0.650025535148886,0.418
-0.600739689849308,0.650207676282359,0.419
-0.597911835553996,0.650450963517529,0.42
-0.595124772837209,0.65075262806501,0.421
-0.592365033546907,0.651094127256588,0.422
-0.589623777531248,0.651465282730878,0.423
-0.586897125925805,0.651861175187484,0.424
-0.584176301199055,0.652271307449142,0.425
-0.581445751547517,0.652678978103087,0.426
-0.578700770851894,0.653084966306944,0.427
-0.575933421849979,0.653460863781012,0.428
-0.573130608104294,0.653797494080067,0.429
-0.570271990178267,0.654094983275955,0.43
-0.567358739134006,0.65432746148559,0.431
-0.564379143398329,0.654483454214206,0.432
-0.561316367265813,0.654561678996441,0.433
-0.558166960914849,0.654533160933477,0.434
-0.554930538856924,0.654388206856701,0.435
-0.55159051663716,0.654129155019222,0.436
-0.548126409352213,0.65371870817015,0.437
-0.544542828821625,0.653147496044577,0.438
-0.540836303435202,0.652422591358842,0.439
-0.53700376589632,0.651521506337842,0.44
-0.533024229033334,0.650441886300765,0.441
-0.528891931278633,0.649169398926863,0.442
-0.524615458124123,0.647701414278814,0.443
-0.52018138691555,0.64603346230025,0.444
-0.515579458833524,0.644160074294799,0.445
-0.510815384230896,0.642074652332966,0.446
-0.505894615384916,0.639778254010093,0.447
-0.500805836442096,0.637278945842684,0.448
-0.495557327468936,0.634567021739527,0.449
-0.490149349536225,0.631639665870467,0.45
-0.484585125964167,0.628479479527466,0.451
-0.478863637985006,0.625105342247588,0.452
-0.472982465418494,0.621510966411157,0.453
-0.466946467706073,0.617703699950105,0.454
-0.460755680801137,0.613679966498461,0.455
-0.454414607535781,0.609456305314919,0.456
-0.447930934955447,0.605030165842051,0.457
-0.441308974191346,0.600397240888409,0.458
-0.434549440561707,0.595560714304115,0.459
