Drag (N),Lift (N),Time (s)
1.549,-2.185,0
1.56666420629955,-2.17583866489519,0.001
1.58431392846381,-2.16664813622333,0.002
1.60194484551517,-2.15742433075705,0.003
1.61953491130887,-2.14814210145756,0.004
1.6370643170537,-2.13877412580553,0.005
1.65452824025781,-2.1292918919474,0.006
1.67191752242223,-2.11968443513761,0.007
1.68919944917214,-2.10993635536005,0.008
1.70634266678311,-2.10001244798586,0.009
1.72337263696163,-2.08991390555112,0.01
1.74026465498717,-2.07963169651059,0.011
1.75699769855073,-2.06914190183023,0.012
1.77356357753274,-2.0584179348229,0.013
1.78994888337148,-2.04746204616512,0.014
1.80613919339658,-2.03626349487869,0.015
1.82211409565066,-2.02480255934958,0.016
1.83786235312897,-2.01309277697579,0.017
1.85338281050419,-2.00114581480207,0.018
1.86863673963232,-1.98895298872934,0.019
1.88360286369491,-1.97649372110569,0.02
1.89826120729447,-1.96379725952775,0.021
1.91257874325443,-1.95082157767411,0.022
1.92650194149478,-1.93757551086566,0.023
1.9400267624002,-1.92405288584185,0.024
1.95310889413132,-1.91026210305286,0.025
1.96569795522724,-1.89620059479718,0.026
1.97774674383434,-1.88187079415938,0.027
1.98921431110172,-1.86726298941856,0.028
2.00005971053404,-1.85234997099065,0.029
2.01023645540184,-1.83709637918417,0.03
2.01967500185013,-1.82152021052435,0.031
2.02832762331427,-1.80560470458117,0.032
2.03613221233617,-1.78935288413192,0.033
2.04304121351527,-1.7727725626838,0.034
2.04899140346434,-1.75584849313194,0.035
2.05391145178785,-1.73855782353176,0.036
2.05775616965093,-1.72092015806394,0.037
2.06048464587945,-1.70293698382851,0.038
2.06201091675156,-1.68460270835661,0.039
2.0622879582192,-1.66588772355121,0.04
2.06128236132572,-1.64681279391548,0.041
2.05893447236431,-1.62735207431258,0.042
2.05517112466985,-1.60751433006424,0.043
2.04997034812414,-1.58728951675402,0.044
2.04326966989907,-1.56667655956728,0.045
2.03502214991879,-1.5456699574626,0.046
2.0252153107771,-1.52428194972506,0.047
2.01383111438646,-1.50248739196585,0.048
2.00082516774429,-1.48030283830385,0.049
1.986169259673,-1.45776952437394,0.05
1.96987759608349,-1.4348653542322,0.051
1.95196027794911,-1.41159771865995,0.052
1.93239442011385,-1.38801786225506,0.053
1.91118754646132,-1.36414070919581,0.054
1.88838869065424,-1.33996575753003,0.055
1.86400176154572,-1.31554447823704,0.056
1.83803100798636,-1.29087897851932,0.057
1.81053026888837,-1.2659966745416,0.058
1.78156177425161,-1.24092347368553,0.059
1.75115691425261,-1.2156901543174,0.06
1.71937109274866,-1.19028199538612,0.061
1.68627359029058,-1.16472032901049,0.062
1.65192334355467,-1.13901859341562,0.063
1.61636191364897,-1.11319563776195,0.064
1.57967840214586,-1.08724743114543,0.065
1.54191377962244,-1.06118760354614,0.066
1.50314322100694,-1.03498328367396,0.067
1.46343856687352,-1.00862744148514,0.068
1.42287680618979,-0.982113590682156,0.069
1.38153208952554,-0.955436018325898,0.07
1.33946740321736,-0.928564442523129,0.071
1.29675003268316,-0.901505959935795,0.072
1.25347209229459,-0.874232653648807,0.073
1.20970405656963,-0.846732127177965,0.074
1.16549179647297,-0.819007023561451,0.075
1.12092759878094,-0.791036394547439,0.076
1.07608196989422,-0.762816861601322,0.077
1.03103491587738,-0.734321623549311,0.078
0.985870453370198,-0.705533259195803,0.079
0.940643027831217,-0.676464938435165,0.08
0.895444842766967,-0.647084815162868,0.081
0.850366894731281,-0.617408960427952,0.082
0.805499857749278,-0.587401316885214,0.083
0.760917438653157,-0.557075698160709,0.084
0.716721829356672,-0.526429954839064,0.085
0.672963805097605,-0.49546113325741,0.086
0.629696291165224,-0.464134464996638,0.087
0.587001444385825,-0.432448122204697,0.088
0.544941435146465,-0.400399615854951,0.089
0.503570096828671,-0.367954777169027,0.09
0.462938912197338,-0.335088978021869,0.091
0.42309351243949,-0.301813906658163,0.092
0.38407246245549,-0.26809730751535,0.093
0.34589444774291,-0.23390804838146,0.094
0.308596837557949,-0.199235672108516,0.095
0.272221039436979,-0.164058060802604,0.096
0.236776359092648,-0.128344523061855,0.097
0.202277921832488,-0.0920826257490103,0.098
0.168763453627445,-0.0552585675544658,0.099
0.136239297764736,-0.0178716217931428,0.1
0.104724628175365,0.020127105543947,0.101
0.0742017630973495,0.0587327099929791,0.102
0.0446893031228537,0.0979666787894685,0.103
0.0161809009942605,0.13782265534959,0.104
-0.0113137844364408,0.178312603547312,0.105
-0.0378062481854461,0.219435876862353,0.106
-0.0633156222422127,0.261183321460658,0.107
-0.0878490843720639,0.303555590826644,0.108
-0.111402605676053,0.346550257230474,0.109
-0.133978750188744,0.390130631393174,0.11
-0.155646015563082,0.43431031673915,0.111
-0.176424167128707,0.47906143737742,0.112
-0.196317949059009,0.524399935679923,0.113
-0.215370689776502,0.570279914674768,0.114
-0.233636074821277,0.616686403284575,0.115
-0.251171296681632,0.663624687220863,0.116
-0.268017057495133,0.711066005437236,0.117
-0.284232374309877,0.75902952946931,0.118
-0.299906894122242,0.80751916674263,0.119
-0.315077526070747,0.856537137954117,0.12
-0.32982021668376,0.906049715654673,0.121
-0.344228088893806,0.956091899409418,0.122
-0.358379624657009,1.00663684786292,0.123
-0.372312645535028,1.0576794098087,0.124
-0.386155096240837,1.10921934329412,0.125
-0.399982246223086,1.16125843499805,0.126
-0.413837050849807,1.2137944624645,0.127
-0.42777661230468,1.26679515167379,0.128
-0.441886182534234,1.32022820115482,0.129
-0.456217974923932,1.37405132299938,0.13
-0.470825647766502,1.42820010681994,0.131
-0.485750606274856,1.48265125441434,0.132
-0.501046032111814,1.53736886324224,0.133
-0.516730252851973,1.59230253279792,0.134
-0.53288252354013,1.64740976697041,0.135
-0.549539329599401,1.70264561891245,0.136
-0.566692061575369,1.7579031545048,0.137
-0.584392167313033,1.81312743934349,0.138
-0.60268338128712,1.86828665199361,0.139
-0.62152816920294,1.92329660214367,0.14
-0.640936919036191,1.97806253020562,0.141
-0.660952019733637,2.03256846647563,0.142
-0.681557067397386,2.08671386715709,0.143
-0.702712883903967,2.14041761338669,0.144
-0.724438423775024,2.19362323095316,0.145
-0.746693260246948,2.24626130668795,0.146
-0.7694526300865,2.29825408364917,0.147
-0.792723771638195,2.34953449816807,0.148
-0.816465660158678,2.40001069650134,0.149
-0.840644734997666,2.44962773987904,0.15
-0.865216932176366,2.49837168047254,0.151
-0.890161830525207,2.54615401829107,0.152
-0.915474601323727,2.59291865978512,0.153
-0.941114501916382,2.63864964902363,0.154
-0.967057802743658,2.68331083176354,0.155
-0.993296545029461,2.72684929915166,0.156
-1.01980142259478,2.76925595748574,0.157
-1.04652785276055,2.81049480881815,0.158
-1.07347651006798,2.85055066922496,0.159
-1.10064232036719,2.88942085864516,0.16
-1.12800059630492,2.92708072787638,0.161
-1.15553585899997,2.96350483139228,0.162
-1.18323794392223,2.9986810876894,0.163
-1.21109316164374,3.03260102297171,0.164
-1.23907824718982,3.06526651549758,0.165
-1.26721005037118,3.09666208903678,0.166
-1.29542865393954,3.12679031378148,0.167
-1.32371884671679,3.15561329253924,0.168
-1.35206923639808,3.18313539060968,0.169
-1.38045779562276,3.20932911021112,0.17
-1.40885132718701,3.23420442888495,0.171
-1.43721351140376,3.25773335346238,0.172
-1.4655187550143,3.27992021930395,0.173
-1.49373123495466,3.30074902913388,0.174
-1.52182112838517,3.32020035917027,0.175
-1.54972862721518,3.33828575015562,0.176
-1.57742958457543,3.35498954505976,0.177
-1.60488149486386,3.37034463257772,0.178
-1.63207175027312,3.38432256263786,0.179
-1.65896942012177,3.39692664535642,0.18
-1.68550529392522,3.40819598734165,0.181
-1.71167826537212,3.41812780946309,0.182
-1.73746333351926,3.42674669558156,0.183
-1.76286211293443,3.43404971277316,0.184
-1.78785164151103,3.44008537407659,0.185
-1.81245676298085,3.44489130403271,0.186
-1.83663280584419,3.4485237116971,0.187
-1.86036471220898,3.45099380210098,0.188
-1.88367621673258,3.45235098256863,0.189
-1.90657164295403,3.45263159237206,0.19
-1.92903454434262,3.45186488295576,0.191
-1.95107518364109,3.45008525015372,0.192
-1.97270692506632,3.44734296820345,0.193
-1.9939225925675,3.44368515867993,0.194
-2.01473254380933,3.43915087036383,0.195
-2.0351358976708,3.43378809012917,0.196
-2.05513367410873,3.42762724335578,0.197
-2.07471957897047,3.42071677218606,0.198
-2.09390096044171,3.41310185233402,0.199
-2.11270104766891,3.40483127992334,0.2
-2.13112917114805,3.39595501091922,0.201
-2.14919943897178,3.38649173887223,0.202
-2.16689111154739,3.37650431796974,0.203
-2.18422997455483,3.36600764661121,0.204
-2.20124547205441,3.3550805205063,0.205
-2.21795047287269,3.34375241006551,0.206
-2.23434349298984,3.33206234073324,0.207
-2.25044285180955,3.32006911781238,0.208
-2.26627027777677,3.30780556739361,0.209
-2.28185128102638,3.29531389540878,0.21
-2.29720056061991,3.28265258663637,0.211
-2.31232268354235,3.26984773671426,0.212
-2.3272357909734,3.2569612342203,0.213
-2.3419758636832,3.2439965319622,0.214
-2.35654834194038,3.2310193359259,0.215
-2.37096776034285,3.21807243940789,0.216
-2.38523408345234,3.20518080931747,0.217
-2.3993691111952,3.19238795863041,0.218
-2.41337116996884,3.17971023678216,0.219
-2.42722682787438,3.16716929002149,0.22
-2.44096021993074,3.15477473555921,0.221
-2.45455546117264,3.14256657526047,0.222
-2.46799805683456,3.13053492005244,0.223
-2.48128236109642,3.11869002225393,0.224
-2.49440692229567,3.10702472476295,0.225
-2.50732182942312,3.09553703116941,0.226
-2.52001080046908,3.08422043369164,0.227
-2.53246200070464,3.07305341849616,0.228
-2.5446590796972,3.06204485771397,0.229
-2.55657391332093,3.05119273293713,0.23
-2.56818567424045,3.04048498756847,0.231
-2.57947702182541,3.02990556889577,0.232
-2.59044933238343,3.01944762600968,0.233
-2.601059592497,3.00908787432866,0.234
-2.61129064873546,2.99881560763343,0.235
-2.62110046856254,2.98861794083884,0.236
-2.63046568761054,2.97847275655766,0.237
-2.63937652338276,2.96838812552224,0.238
-2.64779546336011,2.95835637742466,0.239
-2.65569000581634,2.94833310189603,0.24
-2.66306613867488,2.93830859319949,0.241
-2.66990125330816,2.92828066482709,0.242
-2.67615054776937,2.91819429587543,0.243
-2.68180493293351,2.90804934361776,0.244
-2.68685192752861,2.89782657619551,0.245
-2.69126527742676,2.88748976601199,0.246
-2.69503799302617,2.87701995604992,0.247
-2.69816295339823,2.86639368844476,0.248
-2.70060273527924,2.85558267225295,0.249
-2.70235892130008,2.84458295809617,0.25
-2.70342323412605,2.83336381610939,0.251
-2.70378684224979,2.82187277018471,0.252
-2.70343830050916,2.81010528737443,0.253
-2.70236310365935,2.79803320664541,0.254
-2.70055818586977,2.78561563756917,0.255
-2.69800550480102,2.77282808704655,0.256
-2.69470034577381,2.75964698681861,0.257
-2.6906313757361,2.74603115345788,0.258
-2.68579672959192,2.73195720131253,0.259
-2.68017863192613,2.71738200683528,0.26
-2.67376622206023,2.70225517484867,0.261
-2.66654371088501,2.68655821940219,0.262
-2.65849643060521,2.67025320166826,0.263
-2.64962242309755,2.6532955285595,0.264
-2.63990326025245,2.63566264850567,0.265
-2.62932971159839,2.6173014998377,0.266
-2.61786756904872,2.59819029044569,0.267
-2.60552730493927,2.57828136442452,0.268
-2.59231423887172,2.55756497823368,0.269
-2.57821988279579,2.53598121177362,0.27
-2.56323446312542,2.51352422674178,0.271
-2.54735529378471,2.49015790129204,0.272
-2.53057931012346,2.46586530208463,0.273
-2.51291386686575,2.44063304222871,0.274
-2.49438641094773,2.41445768818475,0.275
-2.47500590148502,2.38732959382193,0.276
-2.45478900053673,2.35924045555917,0.277
-2.43377140736321,2.33018514777389,0.278
-2.41198523443899,2.3001536186429,0.279
-2.38943831910482,2.26917649328745,0.28
-2.36615806360902,2.23727364971517,0.281
-2.34220220417878,2.20444016146645,0.282
-2.31758289133649,2.17070449983318,0.283
-2.29234320318757,2.13608160787471,0.284
-2.26650642676525,2.10059995888337,0.285
-2.24010447439016,2.0642756861224,0.286
-2.21316004674497,2.02712307228926,0.287
-2.18573636850487,1.98916451282608,0.288
-2.1578694916905,1.9504300454386,0.289
-2.12959459233743,1.9109618265657,0.29
-2.10095095883023,1.87079769012574,0.291
-2.07199001611699,1.82998072343475,0.292
-2.04273664230786,1.78856851948811,0.293
-2.01323833073616,1.74659882079227,0.294
-1.98353767950959,1.70410359965812,0.295
-1.95366465280992,1.66113335600454,0.296
-1.92366118685796,1.61774681252422,0.297
-1.89359004875526,1.57400412671558,0.298
-1.86350311385463,1.52995358287569,0.299
-1.83343269390708,1.48565119918627,0.3
-1.80341686505522,1.44114368763742,0.301
-1.7734981190132,1.39649416070295,0.302
-1.74372324616044,1.35177180527328,0.303
-1.71413498396311,1.30702387848123,0.304
-1.68476455662356,1.26233057092228,0.305
-1.65564153805585,1.2177300630906,0.306
-1.62680692051526,1.1732883423471,0.307
-1.59831144639169,1.12907821853709,0.308
-1.57018229349967,1.08513246819605,0.309
-1.54245766796543,1.04152659764212,0.31
-1.51517321106544,0.998319885449286,0.311
-1.48836547953876,0.955564250167239,0.312
-1.46205371987491,0.913328243866252,0.313
-1.43628497035085,0.871649225202283,0.314
-1.41107410981559,0.830613132772427,0.315
-1.38645215647513,0.790260755433236,0.316
-1.362438972355,0.750637202006327,0.317
-1.33906667153114,0.711794670243001,0.318
-1.31635884342978,0.67376112846038,0.319
-1.29433537983174,0.636552638596466,0.32
-1.27301444820536,0.600211350782173,0.321
-1.25240739740924,0.564767465871433,0.322
-1.23254760022623,0.530236715528436,0.323
-1.21342804483395,0.496660468198106,0.324
-1.19504920921417,0.464046183687836,0.325
-1.17743630050947,0.432430041594406,0.326
-1.16060168916928,0.401824579122507,0.327
-1.14453868064695,0.372234567893172,0.328
-1.12926596419293,0.343662256513687,0.329
-1.11478993075424,0.316116872007711,0.33
-1.10109180819132,0.289577555406322,0.331
-1.08816960385944,0.264044757737203,0.332
-1.07601945596859,0.239529907178169,0.333
-1.06460687660423,0.216006906964812,0.334
-1.05393326860751,0.193465035934331,0.335
-1.04399999618037,0.171890582942485,0.336
-1.03477650105446,0.151250645738516,0.337
-1.02623760808438,0.13150667318667,0.338
-1.01837331040927,0.112636471602766,0.339
-1.011160875287,0.0945919944087059,0.34
-1.00456785271208,0.0773566003920302,0.341
-0.998564652984261,0.0608928125911881,0.342
-0.993111424474339,0.0451477055933545,0.343
-0.988189387349735,0.0300819869784343,0.344
-0.983762335961021,0.0156485597580354,0.345
-0.97979999148113,0.00178990009575261,0.346
-0.976262359568462,-0.0115328526078629,0.347
-0.973118825821303,-0.0243868884545741,0.348
-0.970328112140761,-0.0368109307457214,0.349
-0.967860336320622,-0.0488586052828426,0.35
-0.965680497890535,-0.0605961594929598,0.351
-0.963750720069061,-0.0720726653073298,0.352
-0.96203588832685,-0.083331615352873,0.353
-0.960503478489704,-0.094436790044771,0.354
-0.959104958223515,-0.105443879886462,0.355
-0.957798021472291,-0.116399746120402,0.356
-0.956544331430274,-0.127365747850144,0.357
-0.955303673199149,-0.138399384822255,0.358
-0.954033364525979,-0.149550043033285,0.359
-0.952694421658931,-0.160881227720685,0.36
-0.951242812110218,-0.172432180187479,0.361
-0.949633633221047,-0.184243095690677,0.362
-0.947831555554652,-0.196365731155841,0.363
-0.94580326833111,-0.208849046810675,0.364
-0.943506495676384,-0.221713669780255,0.365
-0.940913401001474,-0.2350145648085,0.366
-0.937986253275359,-0.248783166769606,0.367
-0.934704876941041,-0.263056676526974,0.368
-0.931043963068808,-0.277853728182995,0.369
-0.926957852374497,-0.293218477140118,0.37
-0.922408721399572,-0.309127841154269,0.371
-0.917390790766293,-0.325620556049299,0.372
-0.911883444700429,-0.342710256370771,0.373
-0.905885116398161,-0.360393012565175,0.374
-0.899370129767816,-0.378689303179213,0.375
-0.89230414441119,-0.397609912741162,0.376
-0.884670377414314,-0.417139065557964,0.377
-0.876465430782054,-0.437286341294631,0.378
-0.867652100750617,-0.45803862549043,0.379
-0.858205825229259,-0.479387285623685,0.38
-0.84812210340643,-0.501339460629733,0.381
-0.837387446801776,-0.523897332235004,0.382
-0.825981334658909,-0.547037718968992,0.383
-0.813903183601463,-0.570751749459296,0.384
-0.801140861150438,-0.595012978466798,0.385
-0.787690625354226,-0.619803826680292,0.386
-0.7735623172824,-0.645088608500846,0.387
-0.758755260001837,-0.670842057311384,0.388
-0.743266931646726,-0.697040145398291,0.389
-0.727114841892289,-0.723634684179585,0.39
-0.710293823492103,-0.750617311310024,0.391
-0.692805701039285,-0.777945221176385,0.392
-0.674657075862849,-0.805577505488973,0.393
-0.655873314359711,-0.833508641170081,0.394
-0.63645139158978,-0.86168578635524,0.395
-0.616412140680937,-0.890060641315864,0.396
-0.595759867209597,-0.918610072044106,0.397
-0.574518765986596,-0.947307336828514,0.398
-0.552688919240532,-0.976110080298377,0.399
-0.530275553582675,-1.00498352989334,0.4
-0.507300576686129,-1.03389518196085,0.401
-0.483794116981319,-1.06280054926481,0.402
-0.459759026559019,-1.091677296488,0.403
-0.435216243782638,-1.12049682134126,0.404
-0.410198168246573,-1.14921861172708,0.405
-0.384729468642129,-1.17782086283269,0.406
-0.358830125691678,-1.20627867755192,0.407
-0.332531154073222,-1.23454511150454,0.408
-0.305854825368875,-1.26261385709026,0.409
-0.278830541824081,-1.29043218884902,0.41
-0.251474144453071,-1.31800033399784,0.411
-0.223813072149568,-1.34529347631588,0.412
-0.195880834994421,-1.37229042459729,0.413
-0.167713535680431,-1.3989789552905,0.414
-0.139311099944516,-1.42533496388358,0.415
-0.110715294855243,-1.4513600223201,0.416
-0.0819587157415764,-1.47704201227185,0.417
-0.0530615409809555,-1.50236738279685,0.418
-0.0240417135883378,-1.52734995241471,0.419
0.00508300299363511,-1.55196269536665,0.42
0.0342914209000163,-1.57618079164581,0.421
0.0635464377665192,-1.60001319223264,0.422
0.0928352026318244,-1.62343681860417,0.423
0.122149525246003,-1.64645042394362,0.424
0.151445818737644,-1.6690660215925,0.425
0.180697744760702,-1.69124264895571,0.426
0.209901063315948,-1.71299564193026,0.427
0.239026121155963,-1.73432135605002,0.428
0.268035646130274,-1.75520827740756,0.429
0.296930725399524,-1.77564840342373,0.43
0.325696068007242,-1.79565748099784,0.431
0.354279157994477,-1.81521016842808,0.432
0.382664064598598,-1.8342958532335,0.433
0.41083145429597,-1.85294405926435,0.434
0.438758389421828,-1.87112728679215,0.435
0.466416187766507,-1.88886006362824,0.436
0.493799662076975,-1.90615089259348,0.437
0.520880517844221,-1.92299304809518,0.438
0.547635710643524,-1.93937198891133,0.439
0.574044486981821,-1.9553115557573,0.44
0.600100839268731,-1.97079099880308,0.441
0.625787899621502,-1.98581912795934,0.442
0.651080132435628,-2.00040974253975,0.443
0.675954238785466,-2.01454623379586,0.444
0.700410489971866,-2.02823508901315,0.445
0.724437356303018,-2.04147910792585,0.446
0.74800489512566,-2.05427111901959,0.447
0.77110687636659,-2.06660881656417,0.448
0.793732237860224,-2.07848145125141,0.449
0.815866734787518,-2.08990548178256,0.45
0.837499507566363,-2.10086394975687,0.451
0.858626299287982,-2.11135817279096,0.452
0.879247716216812,-2.1213984276414,0.453
0.899358582128488,-2.13099102001781,0.454
0.918965418256973,-2.14013406080654,0.455
0.938072519637969,-2.14883561709711,0.456
0.956679565785461,-2.15709281400692,0.457
0.97478123645246,-2.16492112548983,0.458
0.992403350929935,-2.17232667529797,0.459
1.00955630256333,-2.17930915537207,0.46
1.02624924058137,-2.18587838132999,0.461
1.04250228046163,-2.19203480926722,0.462
1.05833332553423,-2.19779009831641,0.463
1.0737528957608,-2.20315650057294,0.464
1.08878466413645,-2.20813251212358,0.465
1.10345166693574,-2.21273320374121,0.466
1.11778003123108,-2.21695754116707,0.467
